B01,,B04,,
Wavelength (nm),Abs,Wavelength (nm),Abs,
1099.975464,0.02209956758,1099.975464,0.04664033279,
1099.50708,0.006662141066,1099.50708,0.01620020717,
1099.038574,0.01449156273,1099.038574,0.03060178831,
1098.452637,0.01825997978,1098.452637,0.01441325713,
1097.983765,0.007787935436,1097.983765,0.03346981108,
1097.514648,0.005963623524,1097.514648,0.01062728558,
1097.04541,-0.01637871191,1097.04541,-0.007558960468,
1096.458618,0.004890028387,1096.458618,0.02080562711,
1095.989014,0.005688386504,1095.989014,0.03020980023,
1095.519165,0.01494028326,1095.519165,0.03627356514,
1095.049194,0.02488803864,1095.049194,0.03151766211,
1094.461548,0.02014983818,1094.461548,0.02543641999,
1093.991211,0.02595441416,1093.991211,0.06512404233,
1093.52063,0.01152645331,1093.52063,0.02033963241,
1093.049927,-0.003935830668,1093.049927,0.02041068301,
1092.461426,-0.01699339785,1092.461426,0.007823884487,
1091.990356,0.01094469335,1091.990356,0.04352569208,
1091.519043,0.01638204604,1091.519043,0.03000615723,
1091.047729,0.01276612747,1091.047729,0.01984086074,
1090.458252,0.009263410233,1090.458252,0.01556842029,
1089.98645,0.006304508075,1089.98645,0.02894958295,
1089.514526,0.02214235812,1089.514526,0.05891858786,
1089.042358,0.007651388645,1089.042358,0.03512928635,
1088.452026,0.01282179356,1088.452026,0.01682876982,
1087.979492,0.0102776112,1087.979492,0.04195546731,
1087.506836,0.02650901489,1087.506836,0.03808109462,
1087.033936,-0.004473890644,1087.033936,0.005794567056,
1086.442749,0.02190957405,1086.442749,0.03922383487,
1085.969482,0.01641968079,1085.969482,0.0318935886,
1085.496094,0.00613579154,1085.496094,0.02344299853,
1085.022583,0.0119597204,1085.022583,0.02963842824,
1084.54895,0.02530847862,1084.54895,0.0340257287,
1083.956543,0.003598599229,1083.956543,0.0263265986,
1083.482422,0.004684937652,1083.482422,0.03550481796,
1083.008179,0.00833808817,1083.008179,0.01967289671,
1082.533813,0.01124456152,1082.533813,0.04596973211,
1082.059204,0.01660502888,1082.059204,0.02942344546,
1081.465698,0.0156876985,1081.465698,0.03279077634,
1080.990723,0.01334384736,1080.990723,0.02338699251,
1080.515625,0.0136278281,1080.515625,0.03424826637,
1080.040405,0.01352502871,1080.040405,0.02517517284,
1079.446045,0.01259267051,1079.446045,0.01586892083,
1078.970337,0.002818582579,1078.970337,0.03475629911,
1078.494507,0.01594987884,1078.494507,0.0210241545,
1078.018555,0.01893712021,1078.018555,0.03510560095,
1077.542358,0.00871636346,1077.542358,0.02541454509,
1076.946899,-0.003633539891,1076.946899,0.01891616359,
1076.470337,0.01645721123,1076.470337,0.02120144665,
1075.993652,0.01149370521,1075.993652,0.03989620879,
1075.516846,0.03103461303,1075.516846,0.04003175721,
1075.039795,0.02067103423,1075.039795,0.02265638113,
1074.443237,-0.004676451907,1074.443237,0.01950405166,
1073.96582,0.01748163626,1073.96582,0.02390664816,
1073.488281,0.01533266902,1073.488281,0.02805128321,
1073.010498,0.006431488786,1073.010498,0.02560487017,
1072.532593,0.01190115791,1072.532593,0.03092277423,
1072.054565,0.01444520894,1072.054565,0.04045095667,
1071.456665,0.004867672455,1071.456665,0.02095935866,
1070.978271,0.02635880746,1070.978271,0.03395999968,
1070.499634,0.005670001265,1070.499634,0.03216570988,
1070.020874,0.0133652566,1070.020874,0.02909473889,
1069.541992,0.01245194115,1069.541992,0.02118826471,
1068.942993,-0.001930472092,1068.942993,0.02079745382,
1068.463745,-0.005953370128,1068.463745,0.02079579793,
1067.984253,0.002844559727,1067.984253,0.02753737569,
1067.504639,0.01114219148,1067.504639,0.03053299338,
1067.02478,0.0230009947,1067.02478,0.03137831762,
1066.5448,0.008389599621,1066.5448,0.02448764071,
1065.944702,0.006953646895,1065.944702,0.02445507795,
1065.464355,0.01583565585,1065.464355,0.02968271822,
1064.983887,0.01195666008,1064.983887,0.02597202919,
1064.503174,0.0145866666,1064.503174,0.02530170232,
1064.022339,0.01668924466,1064.022339,0.03609293699,
1063.541382,0.01485852245,1063.541382,0.02408181131,
1062.939819,0.001710076001,1062.939819,0.02354420908,
1062.458496,0.01298926026,1062.458496,0.02864097431,
1061.976929,0.01694032177,1061.976929,0.02337715775,
1061.495239,0.01097344421,1061.495239,0.0252624657,
1061.013428,0.01464901865,1061.013428,0.02906227112,
1060.531372,0.008650896139,1060.531372,0.01554263663,
1060.049194,0.01470356062,1060.049194,0.02052698471,
1059.446289,0.005459640175,1059.446289,0.02314054221,
1058.963745,0.003370115766,1058.963745,0.01576185971,
1058.481079,0.01271022856,1058.481079,0.03258628398,
1057.998169,0.01810056157,1057.998169,0.02541289851,
1057.515137,0.00191899261,1057.515137,0.01380255353,
1057.03186,0.01729914732,1057.03186,0.02504802123,
1056.548584,0.009531687945,1056.548584,0.01295725536,
1055.944092,0.0102243647,1055.944092,0.02185643278,
1055.460449,0.01171857864,1055.460449,0.02850332484,
1054.976563,0.01543214079,1054.976563,0.02350860275,
1054.492432,0.009804871865,1054.492432,0.01881461963,
1054.008179,0.01497945562,1054.008179,0.02329693362,
1053.523804,0.01108238567,1053.523804,0.01908599958,
1053.039307,0.009954996407,1053.039307,0.01983438432,
1052.554565,0.01609059237,1052.554565,0.01871774904,
1051.948486,0.01384736877,1051.948486,0.02157170139,
1051.463379,0.01394492481,1051.463379,0.01999330148,
1050.978149,0.006777105387,1050.978149,0.01674907468,
1050.492798,0.01062598545,1050.492798,0.01549244206,
1050.007202,0.007764296141,1050.007202,0.0120395273,
1049.521484,0.01203596126,1049.521484,0.01739292778,
1049.035645,0.01686151884,1049.035645,0.02429870889,
1048.549561,0.01554499753,1048.549561,0.01862808503,
1047.941895,0.01307595242,1047.941895,0.02094746009,
1047.455444,0.005965171847,1047.455444,0.01581619307,
1046.968872,0.01273523178,1046.968872,0.01027432457,
1046.482178,0.006614145357,1046.482178,0.01481946837,
1045.995239,0.005835388787,1045.995239,0.01545931306,
1045.508179,0.01064200792,1045.508179,0.01466912683,
1045.020996,0.01013013162,1045.020996,0.02031470276,
1044.533569,0.009500148706,1044.533569,0.02050071582,
1044.046143,0.008626681753,1044.046143,0.01389592979,
1043.55835,0.008613768965,1043.55835,0.01779665239,
1042.948608,0.009825868532,1042.948608,0.01770364679,
1042.460449,0.0149767492,1042.460449,0.02449539118,
1041.97229,0.00796847418,1041.97229,0.02220942825,
1041.483887,0.01219063904,1041.483887,0.0201199837,
1040.995361,0.008420531638,1040.995361,0.01661992818,
1040.506714,0.0119321011,1040.506714,0.02197110839,
1040.017822,0.007746139541,1040.017822,0.01259573549,
1039.528809,0.01452416275,1039.528809,0.0240362566,
1039.039673,0.01385557279,1039.039673,0.02013164386,
1038.550293,0.01250905916,1038.550293,0.02144345269,
1038.060791,0.008998019621,1038.060791,0.02163092978,
1037.44873,0.01863551512,1037.44873,0.02027507313,
1036.958862,0.01051540766,1036.958862,0.01874928921,
1036.46875,0.0118188234,1036.46875,0.01742871106,
1035.978638,0.006407398265,1035.978638,0.0147829894,
1035.488281,0.012313894,1035.488281,0.01728532836,
1034.997803,0.007967498153,1034.997803,0.01626725309,
1034.50708,0.007450124715,1034.50708,0.01607549563,
1034.016357,0.01571370661,1034.016357,0.01840905845,
1033.525391,0.007716151886,1033.525391,0.01495874394,
1033.03418,0.01286373381,1033.03418,0.01748290285,
1032.542969,0.008317479864,1032.542969,0.01804054528,
1032.051514,0.01189905684,1032.051514,0.01507994626,
1031.559814,0.01045987755,1031.559814,0.0188555494,
1030.945068,0.01366167236,1030.945068,0.01528357062,
1030.453125,0.01139361598,1030.453125,0.02051718719,
1029.96106,0.01735725626,1029.96106,0.01844241284,
1029.46875,0.01249118242,1029.46875,0.0168206431,
1028.976318,0.01465284731,1028.976318,0.01667568646,
1028.483643,0.009045671672,1028.483643,0.01744673774,
1027.990967,0.007682267111,1027.990967,0.01268490776,
1027.497925,0.01045367308,1027.497925,0.01619082876,
1027.004883,0.0134544801,1027.004883,0.01484686974,
1026.511719,0.01484882552,1026.511719,0.02228580043,
1026.018311,0.009571010247,1026.018311,0.01725216955,
1025.524658,0.01149875578,1025.524658,0.01937254146,
1025.031006,0.01202132367,1025.031006,0.01494368631,
1024.537109,0.01270913612,1024.537109,0.01714875177,
1024.043091,0.01205887552,1024.043091,0.01899163425,
1023.548889,0.006403037347,1023.548889,0.01477291994,
1023.054565,0.01102449931,1023.054565,0.0184539184,
1022.560059,0.01175610442,1022.560059,0.02055377141,
1021.941711,0.01156446803,1021.941711,0.01654304005,
1021.446838,0.01458591688,1021.446838,0.02046864107,
1020.951843,0.01361244265,1020.951843,0.01861627772,
1020.456665,0.01474257745,1020.456665,0.02177482843,
1019.961365,0.008969662711,1019.961365,0.01937373169,
1019.465881,0.009725871496,1019.465881,0.01848749258,
1018.970215,0.00958519429,1018.970215,0.01790351607,
1018.474426,0.01156383008,1018.474426,0.01992025971,
1017.978455,0.01081742067,1017.978455,0.01809599996,
1017.482361,0.01223997399,1017.482361,0.02077939548,
1016.986084,0.01193026546,1016.986084,0.02052006498,
1016.489624,0.01118386444,1016.489624,0.02086325735,
1015.993042,0.01491038501,1015.993042,0.02165870927,
1015.496338,0.01116896421,1015.496338,0.02294720151,
1014.99939,0.01285992097,1014.99939,0.02252268605,
1014.50238,0.01198869757,1014.50238,0.02101627551,
1014.005127,0.01313822158,1014.005127,0.02173895948,
1013.507813,0.01302513573,1013.507813,0.0217367541,
1013.010254,0.01181972772,1013.010254,0.01930677332,
1012.512573,0.01240340807,1012.512573,0.02298505418,
1012.014771,0.01147249527,1012.014771,0.02268365398,
1011.516785,0.01242447738,1011.516785,0.02303292975,
1011.018616,0.01070305333,1011.018616,0.02088373527,
1010.520325,0.01261065807,1010.520325,0.02463635243,
1010.021851,0.01130895969,1010.021851,0.02461164072,
1009.523254,0.01010705344,1009.523254,0.02288432792,
1009.024475,0.01211863011,1009.024475,0.02307302877,
1008.525513,0.01218363736,1008.525513,0.02311334945,
1008.026489,0.01114296168,1008.026489,0.02511855774,
1007.527222,0.01475749351,1007.527222,0.02589322068,
1007.027832,0.01350970101,1007.027832,0.02832670137,
1006.528259,0.01147249527,1006.528259,0.02609282546,
1006.028564,0.01168749202,1006.028564,0.02558891661,
1005.528748,0.01425256953,1005.528748,0.02581541426,
1005.028687,0.01387307886,1005.028687,0.02868853696,
1004.528564,0.01159769949,1004.528564,0.02821155079,
1004.028198,0.01568646543,1004.028198,0.02864326909,
1003.527771,0.01435797568,1003.527771,0.03029719554,
1003.0271,0.01114397123,1003.0271,0.02749837749,
1002.526306,0.01254766528,1002.526306,0.0298217684,
1002.025391,0.01233256236,1002.025391,0.03186834976,
1001.524292,0.01308811735,1001.524292,0.02844417468,
1001.023071,0.008940489963,1001.023071,0.02747339383,
1000.521667,0.0116992984,1000.521667,0.03010671772,
1000.020081,0.01007518079,1000.020081,0.02855568193,
999.5183716,0.01255270094,999.5183716,0.03191696107,
999.0164795,0.01456195861,999.0164795,0.03410294652,
998.5144653,0.01505788974,998.5144653,0.03467817977,
998.0123291,0.01140552107,998.0123291,0.03068370745,
997.5100098,0.010974559,997.5100098,0.03187960386,
997.0075073,0.0125919776,997.0075073,0.03224784136,
996.5048828,0.01032328326,996.5048828,0.03241142258,
996.0020752,0.01213508006,996.0020752,0.03430398181,
995.4991455,0.01106337272,995.4991455,0.03262973204,
994.9960327,0.01227158029,994.9960327,0.03435429558,
994.4927979,0.01162848808,994.4927979,0.03437637538,
993.9893799,0.0125759365,993.9893799,0.03547970206,
993.4858398,0.01095279027,993.4858398,0.03396226466,
992.9821167,0.01158592198,992.9821167,0.03491297364,
992.4782715,0.01171113271,992.4782715,0.03416600823,
991.9742432,0.0111464411,991.9742432,0.03504054993,
991.4700928,0.01292741299,991.4700928,0.0354777649,
990.9657593,0.01201445796,990.9657593,0.03852715343,
990.4613037,0.01285312138,990.4613037,0.03729168326,
989.956665,0.01036710478,989.956665,0.03586107492,
989.4519043,0.01109996531,989.4519043,0.0388055332,
988.9469604,0.01168430038,988.9469604,0.0370907262,
988.4418945,0.01145314611,988.4418945,0.03608953208,
988.0629883,0.01115977392,988.0629883,0.03727543727,
987.5576172,0.01004036982,987.5576172,0.03547560424,
987.052124,0.01147427596,987.052124,0.0385369435,
986.5464478,0.01470570266,986.5464478,0.03833317757,
986.0406494,0.0102909971,986.0406494,0.03897273913,
985.534668,0.01363194175,985.534668,0.03897823393,
985.0285645,0.01133728307,985.0285645,0.03922440112,
984.5223389,0.01179844793,984.5223389,0.04027571529,
984.0159302,0.009937091731,984.0159302,0.03808581457,
983.5093384,0.01371555589,983.5093384,0.03926112503,
983.0026245,0.01152182836,983.0026245,0.03800152615,
982.4957275,0.01245282032,982.4957275,0.03654261678,
981.9887085,0.009264097549,981.9887085,0.03722655773,
981.4815674,0.0115854172,981.4815674,0.03823335096,
980.9742432,0.01145327929,980.9742432,0.03681860119,
980.4667358,0.0123304585,980.4667358,0.03744312376,
979.9591675,0.0122973565,979.9591675,0.03692379594,
979.451355,0.0123852957,979.451355,0.03596924245,
978.9434204,0.01247157436,978.9434204,0.03674605489,
978.5623779,0.01327642519,978.5623779,0.03637319431,
978.0541992,0.01165919844,978.0541992,0.03458305821,
977.5458374,0.01158132311,977.5458374,0.03496672586,
977.0373535,0.01358356979,977.0373535,0.03639576957,
976.5287476,0.01032474171,976.5287476,0.03483235836,
976.0199585,0.01389868278,976.0199585,0.03696556389,
975.5109863,0.01365184132,975.5109863,0.03715479001,
975.0018921,0.01098284218,975.0018921,0.036203444,
974.4926758,0.01231780834,974.4926758,0.03806125745,
973.9832764,0.01179036219,973.9832764,0.03814222291,
973.4736938,0.0128376307,973.4736938,0.04133783281,
972.9639893,0.01312357374,972.9639893,0.04147519916,
972.4541626,0.0132773323,972.4541626,0.04377090558,
971.9441528,0.0116004115,971.9441528,0.04049750045,
971.5615845,0.01308966521,971.5615845,0.04330710322,
971.0513306,0.01169049647,971.0513306,0.04140938818,
970.5408936,0.0126535641,970.5408936,0.04146842286,
970.0303345,0.0129341064,970.0303345,0.04178574309,
969.5196533,0.01288927905,969.5196533,0.04554158077,
969.0087891,0.01136635151,969.0087891,0.04290162399,
968.4978027,0.01395166107,968.4978027,0.0454072617,
967.9866333,0.01310906,967.9866333,0.04453777149,
967.4753418,0.01362681296,967.4753418,0.04348408803,
966.9638672,0.0120329801,966.9638672,0.04026100412,
966.4522705,0.01289197244,966.4522705,0.04080523923,
965.9405518,0.01430593804,965.9405518,0.04046374559,
965.5566406,0.01487955078,965.5566406,0.04059759155,
965.0446167,0.01172081288,965.0446167,0.03628729656,
964.5324707,0.01403180789,964.5324707,0.03795745596,
964.0201416,0.01198012941,964.0201416,0.0345463641,
963.5076904,0.01299600862,963.5076904,0.03329640999,
962.9950562,0.01436252426,962.9950562,0.035208527,
962.4823608,0.01302876323,962.4823608,0.03375601768,
961.9694214,0.01297147106,961.9694214,0.03164385259,
961.4563599,0.01277249865,961.4563599,0.03324048966,
960.9431763,0.0145869609,960.9431763,0.03248567879,
960.5581665,0.01423293538,960.5581665,0.03134169802,
960.0447388,0.01413221285,960.0447388,0.02941469289,
959.5311279,0.01427466515,959.5311279,0.02938292176,
959.017395,0.01514588017,959.017395,0.03091410175,
958.503479,0.01532542799,958.503479,0.0293445345,
957.9894409,0.01500121318,957.9894409,0.02971470356,
957.4752197,0.01435265131,957.4752197,0.02821610868,
956.9608765,0.01377174444,956.9608765,0.02960010059,
956.4464111,0.01541612856,956.4464111,0.02899529599,
956.0604248,0.01533977501,956.0604248,0.02738485485,
955.5456543,0.01620727405,955.5456543,0.02832015231,
955.0307617,0.01664545201,955.0307617,0.0278577581,
954.5157471,0.01645667478,954.5157471,0.02742273919,
954.0005493,0.01431853883,954.0005493,0.0272939913,
953.4852295,0.01625389606,953.4852295,0.02672228217,
952.9697266,0.0150731653,952.9697266,0.02637459524,
952.4541016,0.01687704772,952.4541016,0.02690593898,
951.9382935,0.01656667702,951.9382935,0.02702773921,
951.5513916,0.01674487628,951.5513916,0.02763549052,
951.0353394,0.0160307996,951.0353394,0.02734234184,
950.519165,0.01696960628,950.519165,0.02650967427,
950.0028076,0.01615815796,950.0028076,0.02638829499,
949.4863281,0.01724578626,949.4863281,0.02706286497,
948.9697266,0.01676338725,948.9697266,0.02739544213,
948.4529419,0.01536265016,948.4529419,0.025810441,
947.9360352,0.01646662131,947.9360352,0.02624508552,
947.5482788,0.01635696739,947.5482788,0.02599654347,
947.0311279,0.01765773073,947.0311279,0.02712303773,
946.5137939,0.01752416417,946.5137939,0.02616235055,
945.9963379,0.01890851185,945.9963379,0.02655207738,
945.4786987,0.01892316714,945.4786987,0.02655279264,
944.9609375,0.01908069663,944.9609375,0.02665420994,
944.4430542,0.01790143736,944.4430542,0.02515745163,
944.0545654,0.01965022832,944.0545654,0.02595653012,
943.536377,0.01839266531,943.536377,0.02480260096,
943.0180664,0.01933115907,943.0180664,0.02552028,
942.4996338,0.01926813088,942.4996338,0.02498763986,
941.9810791,0.02005375177,941.9810791,0.02524334379,
941.4623413,0.01951691322,941.4623413,0.02589706704,
940.9434204,0.01945215277,940.9434204,0.02510547638,
940.5541992,0.02013977803,940.5541992,0.02695110627,
940.0350342,0.01977521181,940.0350342,0.02726901695,
939.5158081,0.02029498294,939.5158081,0.02647698857,
938.9963379,0.01935037412,938.9963379,0.02636956237,
938.4768066,0.02024806105,938.4768066,0.02787912078,
937.9570923,0.01957854256,937.9570923,0.02692998201,
937.4371948,0.01901373081,937.4371948,0.02881623246,
937.0472412,0.01894726045,937.0472412,0.02815194428,
936.5270996,0.01917859726,936.5270996,0.02861044928,
936.006897,0.02011776157,936.006897,0.02938973531,
935.4864502,0.01884295046,935.4864502,0.02864852361,
934.9659424,0.02007064037,934.9659424,0.02976803854,
934.4452515,0.01907482743,934.4452515,0.02841070667,
934.0546265,0.01985481568,934.0546265,0.02962673269,
933.5336914,0.02025166713,933.5336914,0.03120630421,
933.0126343,0.01931251213,933.0126343,0.02832504362,
932.491394,0.01833036728,932.491394,0.02743316069,
931.9700317,0.02102863789,931.9700317,0.02929092012,
931.4484863,0.01931159198,931.4484863,0.02834424749,
931.057251,0.02111583576,931.057251,0.02714425512,
930.5355225,0.01911488734,930.5355225,0.02612152509,
930.0136108,0.0199883692,930.0136108,0.02615313977,
929.4915161,0.02062491328,929.4915161,0.02631532215,
928.9693604,0.01992071979,928.9693604,0.02725956403,
928.4470215,0.01996294409,928.4470215,0.02509930544,
928.0551758,0.01869075,928.0551758,0.02423637919,
927.5325928,0.01949024387,927.5325928,0.02494445816,
927.0098267,0.02001983859,927.0098267,0.02564235218,
926.4869995,0.01916874945,926.4869995,0.02518565021,
925.9639282,0.01894498803,925.9639282,0.02402055264,
925.4407959,0.0182887055,925.4407959,0.02427916229,
925.0483398,0.01832785644,925.0483398,0.0250165686,
924.5249023,0.01897605881,924.5249023,0.02529654279,
924.0013428,0.01853187568,924.0013428,0.02357839793,
923.4776611,0.01830047742,923.4776611,0.02372767404,
922.9538574,0.01845880784,922.9538574,0.02438199334,
922.5608521,0.01815534942,922.5608521,0.02312806621,
922.0368042,0.01815551147,922.0368042,0.02321148105,
921.5125732,0.01749912649,921.5125732,0.02259172313,
920.9881592,0.01827747375,920.9881592,0.02364260145,
920.4636841,0.01694799215,920.4636841,0.02257708088,
919.9390259,0.01739004441,919.9390259,0.02254427969,
919.5454102,0.01832669601,919.5454102,0.02280757762,
919.0205078,0.01752613112,919.0205078,0.02275146358,
918.4954834,0.01781919785,918.4954834,0.02218605392,
917.9703369,0.01739470661,917.9703369,0.02177199908,
917.4450073,0.01679540426,917.4450073,0.02181043103,
917.0509033,0.01626330242,917.0509033,0.02157839388,
916.5253296,0.01664717495,916.5253296,0.02206911705,
915.9996338,0.01662681252,915.9996338,0.0218982473,
915.4737549,0.01585286483,915.4737549,0.02100353315,
914.9477539,0.01645116322,914.9477539,0.02027678303,
914.5531616,0.01524375472,914.5531616,0.02073888294,
914.0269165,0.01620472036,914.0269165,0.02154936828,
913.5005493,0.01699493639,913.5005493,0.0221473705,
912.973999,0.01666904241,912.973999,0.02204855531,
912.4473267,0.01631490327,912.4473267,0.02159915119,
912.0522461,0.01653674804,912.0522461,0.02194265462,
911.5253296,0.01561247837,911.5253296,0.02167514525,
910.998291,0.01763451844,910.998291,0.02356765792,
910.4710693,0.01553987339,910.4710693,0.02263235487,
909.9437866,0.017256964,909.9437866,0.02327410132,
909.5481567,0.01644051634,909.5481567,0.02269884571,
909.0205688,0.01634519361,909.0205688,0.02340799943,
908.4928589,0.01591303758,908.4928589,0.02356369421,
907.9650269,0.01528432127,907.9650269,0.02223877236,
907.4370117,0.01683910377,907.4370117,0.02367988601,
907.0408936,0.0165765211,907.0408936,0.02378107049,
906.5126953,0.01627977565,906.5126953,0.02370025218,
905.984314,0.01633731835,905.984314,0.02372127585,
905.4557495,0.01630267315,905.4557495,0.0237256512,
905.0592651,0.0156894438,905.0592651,0.02270359173,
904.5305176,0.01537753455,904.5305176,0.02284964919,
904.0015869,0.01573520526,904.0015869,0.02298726514,
903.4725342,0.01469234098,903.4725342,0.02251982316,
902.9433594,0.01651149802,902.9433594,0.02404517494,
902.5463867,0.01684203558,902.5463867,0.02406944335,
902.0169678,0.01655030064,902.0169678,0.02380901575,
901.4874268,0.01655982062,901.4874268,0.02331345715,
900.9577026,0.01682155952,900.9577026,0.02364629135,
900.5603027,0.01644462906,900.5603027,0.02424642444,
900.0303955,0.01714910194,900.0303955,0.02363120206,
899.5003052,0.01655982062,899.5003052,0.02349136025,
898.9700317,0.01715351827,898.9700317,0.02299487963,
898.4396973,0.01696007699,898.4396973,0.02403204329,
898.0418091,0.01746627502,898.0418091,0.02417564578,
897.5112305,0.01726165228,897.5112305,0.02339005098,
896.9804688,0.01724524796,896.9804688,0.02370613068,
896.449585,0.0166330263,896.449585,0.02271968499,
896.0513306,0.01645118929,896.0513306,0.02271193825,
895.5202026,0.0167748481,895.5202026,0.02276297472,
894.9889526,0.0174856782,894.9889526,0.02413319983,
894.4575195,0.01723730192,894.4575195,0.02376313508,
894.0588989,0.0173889678,894.0588989,0.02236979082,
893.5272827,0.01777518541,893.5272827,0.02365908399,
892.9954834,0.01784174517,892.9954834,0.02269671857,
892.463562,0.01814118028,892.463562,0.02379867993,
892.0645142,0.01762077026,892.0645142,0.02361791953,
891.5323486,0.01735922322,891.5323486,0.02351248264,
891.000061,0.01811440662,891.000061,0.0235243421,
890.4676514,0.01782699302,890.4676514,0.02269846387,
889.9350586,0.01798533835,889.9350586,0.02298505418,
889.5355225,0.01900558919,889.5355225,0.02417761646,
889.0027466,0.01817786135,889.0027466,0.02385774814,
888.4697876,0.0177879408,888.4697876,0.02376942337,
887.9367065,0.01820798591,887.9367065,0.02400383726,
887.5368042,0.01726671495,887.5368042,0.02331957594,
887.003479,0.01801965944,887.003479,0.02351119742,
886.4700317,0.01758219488,886.4700317,0.02305340208,
885.9364014,0.01820609532,885.9364014,0.02342054062,
885.5361328,0.01809964329,885.5361328,0.02379395068,
885.0022583,0.01783289947,885.0022583,0.02352592722,
884.4683228,0.01829124428,884.4683228,0.02379179001,
883.9342041,0.01828319766,883.9342041,0.02356249094,
883.5335083,0.01815043762,883.5335083,0.02346898057,
882.9992065,0.01816023514,882.9992065,0.02321836166,
882.4647217,0.01779349707,882.4647217,0.02295918204,
882.0637207,0.01800948754,882.0637207,0.02273866907,
881.5290527,0.01707330532,881.5290527,0.02210289054,
880.9941406,0.0175831113,880.9941406,0.02234703302,
880.4591675,0.01906441338,880.4591675,0.02332867123,
880.0578613,0.01778683439,880.0578613,0.02231691964,
879.522583,0.01723934896,879.522583,0.02227242105,
878.9872437,0.01794098504,878.9872437,0.02233256213,
878.4517212,0.01806021668,878.4517212,0.02237099037,
878.0500488,0.01797897182,878.0500488,0.0224414207,
877.5142822,0.01876791194,877.5142822,0.02229956165,
876.9783936,0.01858901605,876.9783936,0.02170096897,
876.4423828,0.01873185672,876.4423828,0.02153258398,
876.0402832,0.01935267448,876.0402832,0.02324266732,
875.5040894,0.0186531879,875.5040894,0.02137247659,
874.9676514,0.01717883162,874.9676514,0.02144353464,
874.5653076,0.01786642522,874.5653076,0.02108382434,
874.0286865,0.01798366569,874.0286865,0.02098350972,
873.4919434,0.01894355565,873.4919434,0.02270506509,
872.9550781,0.01913019828,872.9550781,0.02266660891,
872.5523071,0.01736455783,872.5523071,0.02132581919,
872.0151978,0.01995603368,872.0151978,0.02196699567,
871.4779053,0.01787335798,871.4779053,0.02164559439,
870.9405518,0.0173671972,870.9405518,0.02113746852,
870.5374146,0.01688870043,870.5374146,0.02035729215,
869.9997559,0.0178497564,869.9997559,0.02179039828,
869.4620361,0.01776766218,869.4620361,0.02198828943,
869.0585938,0.01850675233,869.0585938,0.02263933606,
868.5206299,0.01753979549,868.5206299,0.02172475308,
867.9824829,0.01714533195,867.9824829,0.02109504677,
867.4442139,0.01794187538,867.4442139,0.02154947631,
867.0404663,0.01705707051,867.0404663,0.02177755162,
866.5019531,0.01755098253,866.5019531,0.02160592563,
865.9633179,0.0175355915,865.9633179,0.02096509188,
865.5592651,0.01677288488,865.5592651,0.02063262276,
865.0203857,0.0177660156,865.0203857,0.02262777463,
864.4813843,0.0169884488,864.4813843,0.02181263454,
863.9422607,0.01557163987,863.9422607,0.02139265463,
863.5378418,0.01625177264,863.5378418,0.02189702354,
862.9984741,0.01604903676,862.9984741,0.02196152322,
862.4589844,0.01587974094,862.4589844,0.02245815843,
862.0542603,0.01676077768,862.0542603,0.0227135215,
861.5145264,0.01681956835,861.5145264,0.02294054255,
860.9746704,0.0158267431,860.9746704,0.02312271483,
860.4346924,0.01785534061,860.4346924,0.02480282076,
860.0296021,0.01643887721,860.0296021,0.02336379886,
859.4893799,0.01550547965,859.4893799,0.02389811538,
858.9490356,0.01697611995,858.9490356,0.0243937932,
858.5437012,0.01563381217,858.5437012,0.0228475742,
858.0031128,0.0155012412,858.0031128,0.02260282263,
857.4623413,0.01643245108,857.4623413,0.02339201793,
857.0567627,0.01651792414,857.0567627,0.02411108837,
856.5158081,0.01546304207,856.5158081,0.02343761548,
855.9747314,0.01489774045,855.9747314,0.02363505773,
855.4334717,0.01443961635,855.4334717,0.02284337394,
855.0274658,0.01514625549,855.0274658,0.02342242561,
854.4860229,0.01555860043,854.4860229,0.02422983758,
853.944458,0.01504365914,853.944458,0.02409604006,
853.538208,0.01552788075,853.538208,0.02434188128,
852.9963989,0.01582776383,852.9963989,0.0256276615,
852.4544678,0.01596942917,852.4544678,0.02461848967,
852.0479126,0.01643159054,852.0479126,0.02637806162,
851.5057373,0.01562637836,851.5057373,0.02489483729,
850.9634399,0.01543310657,850.9634399,0.02595276572,
850.5566406,0.01606961153,850.5566406,0.02643926814,
850.0140991,0.01577361673,850.0140991,0.02526081912,
849.4714355,0.01624148153,849.4714355,0.0254287906,
849.0643311,0.01632506214,849.0643311,0.02665641159,
848.5214233,0.01544531155,848.5214233,0.02521585487,
847.9784546,0.01587275974,847.9784546,0.0264683757,
847.4353027,0.01573998295,847.4353027,0.02564232424,
847.027832,0.015331381,847.027832,0.02611855604,
846.484436,0.01414387301,846.484436,0.02537873015,
845.940918,0.01650617458,845.940918,0.02706487477,
845.5332031,0.01573015936,845.5332031,0.02588522434,
844.989502,0.01583758928,844.989502,0.02664237469,
844.4456177,0.01552152261,844.4456177,0.02710215375,
844.0375977,0.01635366119,844.0375977,0.02717646956,
843.4935303,0.01538230851,843.4935303,0.02685229294,
842.9492798,0.0159755256,842.9492798,0.02653969452,
842.5410156,0.01578432694,842.5410156,0.02590039186,
841.996582,0.01547377184,841.996582,0.02645690367,
841.4520264,0.01572181098,841.4520264,0.02697809972,
841.043457,0.01627262682,841.043457,0.02687019296,
840.4986572,0.01559820306,840.4986572,0.02735755965,
839.9537354,0.01502396259,839.9537354,0.0265301466,
839.5449219,0.01584046148,839.5449219,0.02716354467,
838.9997559,0.01481317449,838.9997559,0.02711438574,
838.4544678,0.01676002331,838.4544678,0.02850152738,
838.0454102,0.01549804863,838.0454102,0.02818945423,
837.4998779,0.01484689675,837.4998779,0.02719666995,
836.9542236,0.01612736844,836.9542236,0.02830990218,
836.5449219,0.01606641524,836.5449219,0.02800925821,
835.9990234,0.01520943921,835.9990234,0.02781575173,
835.4530029,0.01618470252,835.4530029,0.02844480984,
835.043457,0.01570224576,835.043457,0.02763993107,
834.4971924,0.01589837484,834.4971924,0.0280706957,
833.9508667,0.0167754665,833.9508667,0.02891632542,
833.5410156,0.01571601443,833.5410156,0.02828904241,
832.9943848,0.01626112498,832.9943848,0.02850136161,
832.4476929,0.01549869217,832.4476929,0.02824809961,
832.0375977,0.01629364304,832.0375977,0.02886525169,
831.4906616,0.01496254839,831.4906616,0.0276988335,
830.9435425,0.01595210843,830.9435425,0.02803231403,
830.5332031,0.01575463824,830.5332031,0.02827677503,
829.9859009,0.0154708745,829.9859009,0.02853411809,
829.4384766,0.01588390395,829.4384766,0.02804150805,
829.027832,0.01622011699,829.027832,0.02832620405,
828.4801636,0.01598264277,828.4801636,0.02779276296,
827.9324341,0.01555323415,827.9324341,0.02787365578,
827.5214844,0.01601857878,827.5214844,0.02834468894,
826.9735107,0.0153604513,826.9735107,0.02835629508,
826.562439,0.01574266702,826.562439,0.02822621912,
826.0142212,0.01551725715,826.0142212,0.02788834088,
825.4658813,0.01535795722,825.4658813,0.027951831,
825.0545654,0.01546392683,825.0545654,0.02841142379,
824.5059814,0.01530325226,824.5059814,0.02794503979,
823.9572754,0.01517437492,823.9572754,0.02708688937,
823.5456543,0.01571539603,823.5456543,0.02804727852,
822.9967651,0.01514161844,822.9967651,0.02777703293,
822.4476929,0.01585756429,822.4476929,0.02823362313,
822.0358276,0.01517515164,822.0358276,0.0278284736,
821.4865723,0.01471092459,821.4865723,0.0271650888,
820.9371948,0.0155887045,820.9371948,0.02862623706,
820.5250854,0.01568447798,820.5250854,0.02745836414,
819.9754639,0.01499638986,819.9754639,0.02728938684,
819.5631714,0.01533945277,819.5631714,0.02628666535,
819.0133667,0.01559259556,819.0133667,0.02875015326,
818.4633789,0.01588312536,818.4633789,0.02790504135,
818.0508423,0.01543511823,818.0508423,0.02809875272,
817.5006714,0.01511476096,817.5006714,0.02700313926,
816.9503174,0.01501265448,816.9503174,0.02622407675,
816.5375366,0.01480736211,816.5375366,0.02633735351,
815.9869995,0.01556675695,815.9869995,0.02637398988,
815.4363403,0.01443814393,815.4363403,0.02565957047,
815.0233154,0.01476536691,815.0233154,0.02649366111,
814.4724121,0.01485013776,814.4724121,0.02684692293,
814.0592041,0.01533947978,814.0592041,0.02674725279,
813.5081177,0.015386438,813.5081177,0.02716169879,
812.9568481,0.01454940438,812.9568481,0.02694083378,
812.543396,0.01386308298,812.543396,0.02582884766,
811.9919434,0.01406402607,811.9919434,0.02697300352,
811.4403687,0.01496193185,811.4403687,0.02638405748,
811.0266113,0.01486701425,811.0266113,0.0266432818,
810.4748535,0.01450529322,810.4748535,0.02690555342,
810.0609131,0.01437199581,810.0609131,0.02613780089,
809.5089111,0.0142015079,809.5089111,0.02543540485,
808.9567871,0.01411664952,808.9567871,0.02586420625,
808.5426636,0.01402394753,808.5426636,0.02545513958,
807.9902954,0.01505719312,807.9902954,0.02653105557,
807.4378052,0.01416684594,807.4378052,0.02581057884,
807.0233765,0.01406279579,807.0233765,0.02540691569,
806.4707031,0.01465820242,806.4707031,0.02659720927,
806.0561523,0.01401467063,806.0561523,0.02565108426,
805.5032349,0.01420164108,805.5032349,0.0246052593,
804.9501953,0.01411218382,804.9501953,0.0248311609,
804.5353394,0.0147575736,804.5353394,0.02605997771,
803.9821167,0.01414649375,803.9821167,0.02534818649,
803.5670776,0.01355846412,803.5670776,0.0258530248,
803.0136108,0.01458091103,803.0136108,0.02598818764,
802.460083,0.01436851732,802.460083,0.0258334633,
802.0447998,0.01361174788,802.0447998,0.02568878978,
801.4909668,0.01470923796,801.4909668,0.02656856179,
800.9370728,0.01375034265,800.9370728,0.02590698563,
800.5215454,0.0138162626,800.5215454,0.02645547315,
799.9674072,0.01453243382,799.9674072,0.02632720396,
799.5516968,0.01453002449,799.5516968,0.02635666169,
798.9973755,0.01429965161,798.9973755,0.0262168739,
798.4428711,0.01457111351,798.4428711,0.02648887411,
798.0269775,0.01480918378,798.0269775,0.02718729898,
797.472229,0.01463158894,797.472229,0.02654503286,
797.0561523,0.0143810669,797.0561523,0.02698785067,
796.5012207,0.01400769223,796.5012207,0.0263770707,
795.946228,0.01375838462,795.946228,0.02649891749,
795.5298462,0.01402453519,795.5298462,0.0267025996,
794.9746094,0.01466644928,794.9746094,0.02772562578,
794.5581055,0.0135577973,794.5581055,0.02641781047,
794.0026245,0.01409597881,794.0026245,0.02697157115,
793.4470825,0.01407702081,793.4470825,0.02726915479,
793.0302734,0.01383601036,793.0302734,0.02704782225,
792.4744873,0.01361917332,792.4744873,0.02709711157,
792.0575562,0.0136990184,792.0575562,0.02678568661,
791.5015869,0.0133211324,791.5015869,0.02658972517,
790.9454346,0.01476360019,790.9454346,0.02822467312,
790.5282593,0.01313176472,790.5282593,0.02662134543,
789.9719238,0.01348112803,789.9719238,0.02608359046,
789.5545654,0.01393564884,789.5545654,0.02648837864,
788.9980469,0.01415933017,788.9980469,0.0270615425,
788.4413452,0.01281078253,788.4413452,0.0251335334,
788.0237427,0.01360605843,788.0237427,0.02716012858,
787.4668579,0.01392891351,787.4668579,0.02751644142,
787.0491333,0.01327906735,787.0491333,0.02646306716,
786.4920044,0.01394987013,786.4920044,0.02709796466,
785.9348145,0.01406862494,785.9348145,0.02691155672,
785.5167847,0.01371609047,785.5167847,0.02686044388,
784.9593506,0.01438740827,784.9593506,0.02692353725,
784.5411987,0.01369530521,784.5411987,0.02624189667,
783.9835205,0.01419650577,783.9835205,0.02629131265,
783.5652466,0.01405266207,783.5652466,0.0262272954,
783.0073853,0.01430572383,783.0073853,0.0268493183,
782.4494019,0.01332361437,782.4494019,0.02546529658,
782.0308228,0.01318435557,782.0308228,0.0259413328,
781.4726563,0.01266832929,781.4726563,0.02471570112,
781.053894,0.01312392112,781.053894,0.02512889914,
780.4954834,0.01376650762,780.4954834,0.02596535161,
779.9370117,0.01337401289,779.9370117,0.0255626142,
779.5180054,0.0139814131,779.5180054,0.02592418715,
778.9592896,0.01348564122,778.9592896,0.0251210276,
778.5401611,0.01396991871,778.5401611,0.02579407021,
777.9812012,0.01365176123,777.9812012,0.02624863386,
777.5619507,0.01326390728,777.5619507,0.02435718663,
777.0027466,0.01341104135,777.0027466,0.02506713569,
776.4434814,0.01419054158,776.4434814,0.02551854961,
776.0239868,0.01360149123,776.0239868,0.02434623428,
775.4644775,0.0128989853,775.4644775,0.02414433658,
775.0447998,0.01328947581,775.0447998,0.0236144755,
774.4851074,0.0143239703,774.4851074,0.02497003786,
774.0652466,0.01236425433,774.0652466,0.02382947132,
773.5053711,0.0133175021,773.5053711,0.02418817952,
772.9453125,0.0145048378,772.9453125,0.02495923452,
772.5252686,0.01370489597,772.5252686,0.02371296473,
771.9650269,0.01450304408,771.9650269,0.02481627837,
771.5447998,0.01365106739,771.5447998,0.02388657257,
770.984314,0.01387275755,770.984314,0.02384199575,
770.5639038,0.01278134994,770.5639038,0.02244504541,
770.0032959,0.01401683595,770.0032959,0.02393449284,
769.4425049,0.014693412,769.4425049,0.02349261753,
769.0218506,0.01383638475,769.0218506,0.02274434268,
768.4609375,0.01311607752,768.4609375,0.02176514082,
768.0401001,0.01341120154,768.0401001,0.02311913855,
767.4789429,0.01393147931,767.4789429,0.02330321446,
767.0579834,0.01384066045,767.0579834,0.02319375798,
766.496582,0.01389552932,766.496582,0.02364033274,
765.9350586,0.01389766764,765.9350586,0.02336150408,
765.513855,0.01378050912,765.513855,0.02325173281,
764.9521484,0.01367903594,764.9521484,0.0233586356,
764.5308228,0.01301025134,764.5308228,0.02271024697,
763.9688721,0.01384795643,763.9688721,0.02338521555,
763.5473633,0.01347955316,763.5473633,0.02349237166,
762.9852905,0.01281027589,762.9852905,0.02367865667,
762.5635986,0.01377869211,762.5635986,0.02393077314,
762.0012817,0.01341056079,762.0012817,0.02434894443,
761.4388428,0.01363266259,761.4388428,0.02516024932,
761.0169067,0.01347931288,761.0169067,0.02477733232,
760.4542847,0.01352852676,760.4542847,0.02516897209,
760.0322266,0.01403207518,760.0322266,0.02592679672,
759.4693604,0.01374489162,759.4693604,0.0256703347,
759.0471191,0.01407413278,759.0471191,0.02641005442,
758.4840698,0.01464299485,758.4840698,0.02724264003,
758.0617065,0.01376439631,758.0617065,0.02671063878,
757.4984131,0.01344809867,757.4984131,0.02652241476,
756.9350586,0.01342647243,756.9350586,0.02719281055,
756.5124512,0.01416526735,756.5124512,0.0279461164,
755.9488525,0.01347674895,755.9488525,0.02726744674,
755.526123,0.01396425162,755.526123,0.02802803367,
754.9623413,0.01417484228,754.9623413,0.02872423828,
754.5393677,0.01358282194,754.5393677,0.02779229358,
753.9754028,0.013652483,753.9754028,0.02844668925,
753.5523071,0.01345496066,753.5523071,0.02828854509,
752.9881592,0.0132396752,752.9881592,0.02828840725,
752.5649414,0.01431377698,752.5649414,0.02970472537,
752.0005493,0.01387609821,752.0005493,0.02946685441,
751.4360352,0.01398098562,751.4360352,0.02968851104,
751.0125732,0.01344932709,751.0125732,0.02954080142,
750.4478149,0.01375806425,750.4478149,0.02961886115,
750.024231,0.01396243367,750.024231,0.02993412875,
749.4592896,0.01380768418,749.4592896,0.03022278659,
749.0355225,0.01465766691,749.0355225,0.03084720112,
748.4703979,0.0143232476,748.4703979,0.03075302765,
748.0465088,0.01319612376,748.0465088,0.03005672619,
747.4812012,0.01391819492,747.4812012,0.03060756624,
747.0571289,0.01449766476,747.0571289,0.03054932319,
746.4915771,0.01364559121,746.4915771,0.0297165066,
746.0673828,0.01468101516,746.0673828,0.03059890121,
745.5016479,0.01459231507,745.5016479,0.03046023846,
744.935791,0.01453452092,744.935791,0.03008086234,
744.5113525,0.01403044444,744.5113525,0.02983269282,
743.9453125,0.01453837566,743.9453125,0.03037988953,
743.5206909,0.01382949017,743.5206909,0.02930637263,
742.9544678,0.01411242411,742.9544678,0.02968923189,
742.5297241,0.0140851764,742.5297241,0.02966603264,
741.9632568,0.01387388073,741.9632568,0.02880942822,
741.5383301,0.01416986808,741.5383301,0.02874536812,
740.9717407,0.01447510254,740.9717407,0.02793711796,
740.5466309,0.01448072307,740.5466309,0.02840440534,
739.9797974,0.0143222576,739.9797974,0.02833142504,
739.5546265,0.01416922547,739.5546265,0.02829078212,
738.9875488,0.01413568947,738.9875488,0.02789739519,
738.5621948,0.01503152028,738.5621948,0.02844370529,
737.9949951,0.01429534424,737.9949951,0.02747309022,
737.569458,0.01440332923,737.569458,0.02756084688,
737.0020142,0.01513526589,737.0020142,0.02777217701,
736.4344482,0.01428402774,736.4344482,0.02629796974,
736.008728,0.01430144347,736.008728,0.02672654949,
735.440979,0.01448329259,735.440979,0.0266493652,
735.0150757,0.01437617,735.0150757,0.02615522966,
734.4471436,0.01494400762,734.4471436,0.02602754533,
734.0211182,0.01417243481,734.0211182,0.02550825663,
733.4529419,0.01477166079,733.4529419,0.02532689087,
733.0267944,0.01432067901,733.0267944,0.02517673559,
732.4584351,0.01442425512,732.4584351,0.02537554689,
732.0321045,0.0143390866,732.0321045,0.02456852421,
731.463562,0.01506759133,731.463562,0.02540628426,
731.0370483,0.01459116396,731.0370483,0.02469421923,
730.4683228,0.01526810043,730.4683228,0.02515259758,
730.041687,0.01452196762,730.041687,0.02455778606,
729.4727783,0.01495437603,729.4727783,0.02482905053,
729.0460205,0.01459210087,729.0460205,0.02448224463,
728.4768677,0.01488094311,728.4768677,0.0246628467,
728.0499268,0.01505078748,728.0499268,0.02469347976,
727.4805908,0.01474332716,727.4805908,0.02425698936,
727.0535278,0.01554641966,727.0535278,0.02528639138,
726.4840088,0.01508519892,726.4840088,0.02481118031,
726.0567627,0.01485825423,726.0567627,0.02563545853,
725.4870605,0.01532317605,725.4870605,0.02563150413,
725.0596924,0.0152097065,725.0596924,0.02602386102,
724.4898071,0.01541215926,724.4898071,0.02574561536,
724.0622559,0.01513858978,724.0622559,0.02628694102,
723.4921875,0.01515660249,723.4921875,0.0262998119,
723.0645142,0.01548646018,723.0645142,0.02662640996,
722.4942017,0.01523761544,722.4942017,0.02690464444,
722.0664063,0.01583578996,722.0664063,0.02774477564,
721.4959106,0.01568222418,721.4959106,0.02792141028,
721.0679321,0.01555945911,721.0679321,0.02789665014,
720.4972534,0.01519927848,720.4972534,0.0283948984,
720.0691528,0.01488485467,720.0691528,0.02835350297,
719.49823,0.01488847099,719.49823,0.02941231057,
719.0700073,0.01468650345,719.0700073,0.02958486043,
718.4989014,0.01482852176,718.4989014,0.03059681691,
718.0705566,0.01465855073,718.0705566,0.0305416584,
717.4992676,0.01483768225,717.4992676,0.03088752925,
717.0707397,0.01510010008,717.0707397,0.03144229203,
716.4992676,0.01440929715,716.4992676,0.03146154806,
716.0705566,0.01475170907,716.0705566,0.03223808482,
715.4989014,0.01430987101,715.4989014,0.03221711889,
715.0700684,0.01490829512,715.0700684,0.0328306444,
714.49823,0.01464856323,714.49823,0.03320620209,
714.0692749,0.01463137474,714.0692749,0.03333134577,
713.4971924,0.01444226503,713.4971924,0.03438135982,
713.0681152,0.01491788588,713.0681152,0.03364878893,
712.4958496,0.01519852784,712.4958496,0.0342826061,
712.0665894,0.01457670797,712.0665894,0.03430964053,
711.4941406,0.01476941165,711.4941406,0.0345553644,
711.0647583,0.01494992897,711.0647583,0.03508716077,
710.4921265,0.01482852176,710.4921265,0.03538614884,
710.0626221,0.01479956787,710.0626221,0.03522823378,
709.4898071,0.01487036236,709.4898071,0.03549259529,
709.0601196,0.01455778256,709.0601196,0.03546540439,
708.4870605,0.01456294861,708.4870605,0.03556937352,
708.057251,0.01459900755,708.057251,0.03586759791,
707.4840698,0.01470803283,707.4840698,0.03528351337,
707.0540771,0.01434633695,707.0540771,0.03534009308,
706.4807129,0.014379167,706.4807129,0.0351087153,
706.0505981,0.01470112428,706.0505981,0.03546919674,
705.4769897,0.01422959194,705.4769897,0.03525319323,
705.0467529,0.01462751999,705.0467529,0.035200499,
704.4729614,0.01485844143,704.4729614,0.035050679,
704.0425415,0.01472849119,704.0425415,0.0348829031,
703.4685669,0.01499038748,703.4685669,0.03386839107,
703.0380249,0.01486902311,703.0380249,0.03398790583,
702.4638672,0.01433970127,702.4638672,0.03385384008,
702.0332031,0.0145782074,702.0332031,0.03290720284,
701.4588623,0.01463191025,701.4588623,0.0325999856,
701.0280151,0.01458733529,701.0280151,0.03210151941,
700.4534912,0.01466221828,700.4534912,0.03156072274,
700.022522,0.01439875364,700.022522,0.03105338104,
699.4478149,0.01441325713,699.4478149,0.03076430783,
699.0167236,0.01455269661,699.0167236,0.03024385124,
698.4417725,0.01449785195,698.4417725,0.02950439416,
698.0105591,0.01441769954,698.0105591,0.02961512096,
697.4354248,0.01405338384,697.4354248,0.0282325726,
697.0040283,0.01457523555,697.0040283,0.02860663459,
696.428772,0.01435150113,696.428772,0.02829887718,
695.9972534,0.01424181648,695.9972534,0.02710022405,
695.5656738,0.01454715524,695.5656738,0.02721543796,
694.9901123,0.01426027343,694.9901123,0.02700820751,
694.5583496,0.01454370283,694.5583496,0.02691968158,
693.982605,0.0142400777,693.982605,0.02626257576,
693.5507202,0.01428472344,693.5507202,0.02655224316,
692.9747925,0.01421169844,692.9747925,0.0262220148,
692.5427856,0.0140212737,692.5427856,0.02653554082,
691.9666748,0.01434724685,691.9666748,0.02647965588,
691.5345459,0.01444595866,691.5345459,0.02622135542,
690.958252,0.01384547073,690.958252,0.02622105367,
690.5259399,0.0144622568,690.5259399,0.02624629624,
689.9494629,0.01375119761,689.9494629,0.02561162412,
689.5170288,0.01405728795,689.5170288,0.02621538937,
688.9403076,0.01374980807,688.9403076,0.02567676082,
688.5077515,0.01401330717,688.5077515,0.0265141055,
687.9309082,0.01409167424,687.9309082,0.02682090178,
687.4981689,0.01404924039,687.4981689,0.02625644393,
687.0654297,0.01411298569,687.0654297,0.02673095465,
686.4882813,0.01385664195,686.4882813,0.02621030249,
686.0553589,0.0134722637,686.0553589,0.02656025067,
685.4780884,0.0137378918,685.4780884,0.02649338543,
685.0450439,0.01381714456,685.0450439,0.02612292767,
684.4675293,0.01373730414,684.4675293,0.02705239505,
684.0343628,0.01423820481,684.0343628,0.02660354041,
683.456665,0.01428381447,683.456665,0.02719209529,
683.0233154,0.01369233988,683.0233154,0.02693989687,
682.4454956,0.01417315751,682.4454956,0.02658477053,
682.0120239,0.01414389908,682.0120239,0.02713954449,
681.43396,0.0139237009,681.43396,0.02674375474,
681.0003662,0.01381449867,681.0003662,0.02703366242,
680.5667114,0.01416438539,680.5667114,0.0272297971,
679.9884033,0.01400670316,679.9884033,0.02680688724,
679.5545654,0.01381532662,679.5545654,0.02666797116,
678.9760742,0.01365443319,678.9760742,0.02633735351,
678.5421753,0.01378756296,678.5421753,0.02614871413,
677.963501,0.01392525155,677.963501,0.02628581412,
677.5294189,0.01349146198,677.5294189,0.02648824081,
676.9505615,0.01382195391,676.9505615,0.02627118304,
676.5163574,0.01313483343,676.5163574,0.02549760416,
675.9373169,0.0137991868,675.9373169,0.0261126738,
675.5029297,0.01376979426,675.5029297,0.0259995386,
675.0685425,0.01360870339,675.0685425,0.02559083886,
674.4892578,0.01347450633,674.4892578,0.02560162917,
674.0546875,0.01443292573,674.0546875,0.02639775723,
673.4752197,0.01405314356,673.4752197,0.02585939877,
673.0405273,0.014301016,673.0405273,0.02655656263,
672.4608765,0.01326462813,672.4608765,0.02526496351,
672.026062,0.01371729281,672.026062,0.02525094338,
671.446228,0.01392375398,671.446228,0.02584829926,
671.0112305,0.01366287377,671.0112305,0.02576621622,
670.4312134,0.01387930568,670.4312134,0.02537979931,
669.9961548,0.01399197336,669.9961548,0.02586920559,
669.5609741,0.01397197694,669.5609741,0.02581700683,
668.9807129,0.01390899997,668.9807129,0.02609178051,
668.5454102,0.01381495316,668.5454102,0.02543172613,
667.9649658,0.01398419403,667.9649658,0.02568813041,
667.529541,0.01428876352,667.529541,0.02556165308,
666.9489136,0.01425981894,666.9489136,0.02576044761,
666.5133667,0.01397820562,666.5133667,0.02567121387,
665.9325562,0.01395617798,665.9325562,0.0258522816,
665.4968262,0.01364494953,665.4968262,0.02621395886,
665.0610962,0.01388657559,665.0610962,0.02581937052,
664.4800415,0.01417064294,664.4800415,0.02621585689,
664.0441284,0.0142886024,664.0441284,0.02651594765,
663.4628906,0.01434660424,663.4628906,0.02672368661,
663.0268555,0.01425005496,663.0268555,0.02655199543,
662.4454346,0.01412223838,662.4454346,0.02699826285,
662.0092773,0.0139215095,662.0092773,0.02693733573,
661.4276733,0.01364051551,661.4276733,0.02734088153,
660.991394,0.0138766598,660.991394,0.02790473774,
660.5550537,0.01379635464,660.5550537,0.02818362601,
659.9732056,0.01399392448,659.9732056,0.02853771299,
659.5366821,0.01379560586,659.5366821,0.02864586934,
658.9546509,0.01416508015,658.9546509,0.02903423458,
658.5180664,0.01425190084,658.5180664,0.02918705903,
657.9358521,0.0140119167,657.9358521,0.03006063774,
657.4990845,0.01381869428,657.4990845,0.02966217883,
657.0623169,0.01390148979,657.0623169,0.03039482608,
656.4797974,0.01382759307,656.4797974,0.03069634736,
656.0429077,0.01460687816,656.0429077,0.03129835427,
655.4602051,0.0140559515,655.4602051,0.03102788329,
655.0231934,0.01409680769,655.0231934,0.03159997612,
654.4403076,0.01446814463,654.4403076,0.03243359923,
654.0031128,0.01404998824,654.0031128,0.03217429668,
653.565918,0.01431564987,653.565918,0.03253581002,
652.9827881,0.01405557711,652.9827881,0.03314232826,
652.5454102,0.01444834005,652.5454102,0.03343253955,
651.9621582,0.01385485195,651.9621582,0.03256948665,
651.5246582,0.01407696679,651.5246582,0.03307840973,
650.9412231,0.01455625705,650.9412231,0.03359299153,
650.50354,0.01421177853,650.50354,0.03401660174,
650.0658569,0.01466711797,650.0658569,0.03433331102,
649.4821777,0.01466513705,649.4821777,0.03418981284,
649.0443726,0.01419658586,649.0443726,0.03401276469,
648.4605103,0.01437493972,648.4605103,0.03383380547,
648.022522,0.0144866379,648.022522,0.03407917544,
647.4384766,0.01412309427,647.4384766,0.0336458236,
647.0003662,0.01489712391,647.0003662,0.03388168663,
646.5622559,0.0144850323,646.5622559,0.03340863809,
645.9779663,0.01461809594,645.9779663,0.03327858075,
645.5396729,0.01464510988,645.5396729,0.03295693919,
644.9552002,0.01462465525,644.9552002,0.03267025203,
644.5167847,0.01472658943,644.5167847,0.03262917325,
643.9321289,0.014729321,643.9321289,0.03216322884,
643.4935913,0.01485102158,643.4935913,0.03188397735,
643.0549927,0.01529223192,643.0549927,0.03169937432,
642.4701538,0.01470192708,642.4701538,0.03124307655,
642.0313721,0.0145306401,642.0313721,0.03103953414,
641.4463501,0.0149795888,641.4463501,0.03098109365,
641.0075073,0.01511569973,641.0075073,0.03074966557,
640.5686035,0.01520619541,640.5686035,0.03095763177,
639.9832764,0.01542449649,639.9832764,0.03083928116,
639.5442505,0.01512631308,639.5442505,0.03034199588,
638.9587402,0.01528963074,638.9587402,0.03023244441,
638.5195923,0.01501930039,638.5195923,0.03037361614,
637.93396,0.01489613298,637.93396,0.02967770025,
637.4946289,0.01518839505,637.4946289,0.03017441928,
637.0552979,0.01540239621,637.0552979,0.03009686992,
636.4693604,0.0153155867,636.4693604,0.02998443879,
636.0299072,0.01516266074,636.0299072,0.02986604907,
635.4438477,0.01506684069,635.4438477,0.02986116894,
635.0042114,0.01521477383,635.0042114,0.030226117,
634.5645142,0.01494167652,634.5645142,0.03009187616,
633.9782104,0.01538423914,633.9782104,0.02993701212,
633.5384521,0.01539652236,633.5384521,0.03020580299,
632.9519653,0.01496112812,632.9519653,0.02998430096,
632.5120239,0.01551591512,632.5120239,0.03030027635,
632.0720215,0.01523528341,632.0720215,0.03044741042,
631.4853516,0.01510082372,631.4853516,0.02986463532,
631.0452271,0.01558602136,631.0452271,0.02998560481,
630.458313,0.0152906226,630.458313,0.03002984636,
630.0180664,0.01543417946,630.0180664,0.03050600179,
629.4310303,0.0156063335,629.4310303,0.02975256927,
628.9906616,0.01540419366,628.9906616,0.03033058718,
628.5502319,0.01534175966,628.5502319,0.02992625162,
627.9629517,0.01555387769,627.9629517,0.03013232723,
627.5223999,0.01527981739,627.5223999,0.02977718785,
626.9349365,0.01549450774,626.9349365,0.02983388491,
626.4942627,0.01575407572,626.4942627,0.02949940786,
626.0535278,0.01535857376,626.0535278,0.02974852361,
625.4658203,0.01566971838,625.4658203,0.02967467904,
625.0249634,0.01524177101,625.0249634,0.02951921709,
624.4370728,0.01513840165,624.4370728,0.02918370999,
623.9960938,0.01524236146,623.9960938,0.02963349409,
623.5550537,0.01518761739,623.5550537,0.02939444408,
622.9669189,0.01551264245,622.9669189,0.02962107956,
622.5257568,0.0156774465,622.5257568,0.03014628403,
621.937439,0.01545260753,621.937439,0.02959710732,
621.4961548,0.01537879463,621.4961548,0.02937444672,
621.0548706,0.01540674083,621.0548706,0.02962299064,
620.4663086,0.01535444427,620.4663086,0.02971234731,
620.0248413,0.01498902123,620.0248413,0.02929319069,
619.4361572,0.01545225829,619.4361572,0.02974954806,
618.9945679,0.01523329876,618.9945679,0.02952944115,
618.5529175,0.01565267704,618.5529175,0.02955199592,
617.9639893,0.01527013816,617.9639893,0.02956576645,
617.5222168,0.01508994214,617.5222168,0.02959777229,
616.9331055,0.0150749078,616.9331055,0.02934605815,
616.4912109,0.01524096727,616.4912109,0.02961805835,
616.0492554,0.01561132446,616.0492554,0.02973258309,
615.4598999,0.01538474858,615.4598999,0.02920007147,
615.0178223,0.01535323728,615.0178223,0.02945535816,
614.4283447,0.0155002214,614.4283447,0.02934470028,
613.986145,0.01502168551,613.986145,0.0292918887,
613.5438843,0.0151024051,613.5438843,0.02891566046,
612.9541626,0.01511307247,612.9541626,0.02901140228,
612.5117798,0.01468805689,612.5117798,0.02876113355,
612.0693359,0.01501005515,612.0693359,0.02857655287,
611.4793701,0.01494033728,611.4793701,0.02871538885,
611.0368042,0.01549812872,611.0368042,0.02898458764,
610.4466553,0.01487882715,610.4466553,0.02843350731,
610.0039673,0.01505110972,610.0039673,0.02861498483,
609.5612793,0.01487127319,609.5612793,0.02839603089,
608.9708862,0.01509476639,608.9708862,0.02872443199,
608.5280151,0.01476919744,608.5280151,0.02836698852,
607.9375,0.01474728994,607.9375,0.02837091126,
607.4945068,0.01443961635,607.4945068,0.02795564197,
607.0515137,0.01502436493,607.0515137,0.0283950083,
606.4606934,0.01490687579,606.4606934,0.02820312604,
606.0175781,0.014616061,606.0175781,0.02822867781,
605.4266357,0.01481475495,605.4266357,0.02854255028,
604.9833374,0.01489498094,604.9833374,0.02854633704,
604.5400391,0.0145703638,604.5400391,0.02819218859,
603.9488525,0.01466869842,603.9488525,0.02827768773,
603.5054321,0.01446884032,603.5054321,0.02811940946,
603.0618896,0.01453390531,603.0618896,0.02853035927,
602.47052,0.0145047307,602.47052,0.02823660709,
602.0269165,0.01473904215,602.0269165,0.02826467529,
601.4353027,0.01489605196,601.4353027,0.0286181923,
600.9915771,0.01456396561,600.9915771,0.02822983824,
600.5477905,0.01458246354,600.5477905,0.02869829908,
599.9559937,0.01452606265,599.9559937,0.02867504209,
599.512085,0.01460760087,599.512085,0.02861708589,
599.0681152,0.01441903692,599.0681152,0.02868574299,
598.4760742,0.01472744718,598.4760742,0.0287442077,
598.0319824,0.01442596782,598.0319824,0.02891936712,
597.4397583,0.01441614702,597.4397583,0.02906049974,
596.9956055,0.01456249319,596.9956055,0.02927430533,
596.5513306,0.01458982565,596.5513306,0.02935118228,
595.9589233,0.01455962937,595.9589233,0.02964995801,
595.5145264,0.01436875854,595.5145264,0.02948500216,
595.0700684,0.01419987623,595.0700684,0.02990381792,
594.477417,0.01464976836,594.477417,0.03025614657,
594.0328979,0.01444454025,594.0328979,0.0300121773,
593.4400635,0.01397860609,593.4400635,0.02976296656,
592.9953613,0.01429759152,592.9953613,0.03007312119,
592.5506592,0.01434146706,592.5506592,0.02971334569,
591.9576416,0.01404603198,591.9576416,0.02965555526,
591.5127563,0.01410239656,591.5127563,0.02951982804,
591.0678711,0.01448607538,591.0678711,0.02928233519,
590.4746094,0.01443019602,590.4746094,0.02933716774,
590.0296021,0.01446418371,590.0296021,0.02931503952,
589.4361572,0.01403552387,589.4361572,0.02910963073,
588.9910278,0.01442661043,588.9910278,0.02928654477,
588.5458374,0.01431792323,588.5458374,0.02948425338,
587.9522095,0.01415106654,587.9522095,0.02968640439,
587.506897,0.01422130037,587.506897,0.0297917705,
587.0615234,0.01443827804,587.0615234,0.03039604798,
586.4676514,0.01441523712,586.4676514,0.03066520579,
586.0221558,0.01409212872,586.0221558,0.03114948422,
585.4281616,0.01432913356,585.4281616,0.03143950924,
584.9825439,0.01446075737,584.9825439,0.03208041936,
584.5369263,0.01429612003,584.5369263,0.03240961209,
583.942627,0.0143830739,583.942627,0.03294613212,
583.4968872,0.01421803702,583.4968872,0.03340461105,
583.0510864,0.01414946187,583.0510864,0.03401290625,
582.456604,0.01401114091,582.456604,0.03397250921,
582.0106201,0.01435674448,582.0106201,0.03446993604,
581.5646973,0.01422306523,581.5646973,0.03460024297,
580.9699707,0.01408790331,580.9699707,0.03447705507,
580.5238647,0.01399718598,580.5238647,0.03501922265,
579.9289551,0.01427466515,579.9289551,0.03525633737,
579.4827881,0.01428389456,579.4827881,0.03550754115,
579.036499,0.01433314662,579.036499,0.03563312814,
578.4414063,0.01427758113,578.4414063,0.03575874865,
577.9950562,0.01408977527,577.9950562,0.03600737453,
577.548584,0.01389416587,577.548584,0.03598650917,
576.9533081,0.01401322708,576.9533081,0.03611251339,
576.5067139,0.01402442902,576.5067139,0.03625147417,
576.0601196,0.01407694072,576.0601196,0.03678611666,
575.4645996,0.01441419404,575.4645996,0.03673667088,
575.0178833,0.01398753561,575.0178833,0.03663786128,
574.571106,0.01407022867,574.571106,0.03696314245,
573.9753418,0.01388951577,573.9753418,0.03685393557,
573.5285034,0.01429579873,573.5285034,0.03705216199,
572.9325562,0.01394992322,572.9325562,0.03724486381,
572.4855347,0.01417837199,572.4855347,0.03723488003,
572.0385132,0.01400197111,572.0385132,0.03741535917,
571.4423828,0.01421603095,571.4423828,0.03757711872,
570.9952393,0.01423395239,570.9952393,0.0375113599,
570.5480347,0.01411009766,570.5480347,0.03725513071,
569.9516602,0.01399729308,569.9516602,0.03728152812,
569.5043335,0.0150282504,569.5043335,0.04119971395,
569.0569458,0.01523429155,569.0569458,0.04079776257,
568.4603882,0.01374959387,568.4603882,0.03829523176,
568.0128784,0.01336119883,568.0128784,0.03940367326,
567.5653687,0.01503704023,567.5653687,0.0399444513,
566.9685669,0.0135913156,566.9685669,0.03951856866,
566.520874,0.01493897103,566.520874,0.03918646649,
566.0731812,0.01674533449,566.0731812,0.04116633162,
565.4761963,0.01350769773,565.4761963,0.04071539268,
565.0283813,0.01411579363,565.0283813,0.04086444899,
564.4312134,0.01597275957,564.4312134,0.04162354767,
563.9832764,0.0148888994,563.9832764,0.04104658961,
563.5352783,0.01317352243,563.5352783,0.03951099887,
562.9378662,0.01451348327,562.9378662,0.04183031991,
562.4898071,0.01613336056,562.4898071,0.04122832045,
562.041687,0.01358704176,562.041687,0.04075468332,
561.4440308,0.01512990519,561.4440308,0.04166357964,
560.9957886,0.01380586717,560.9957886,0.04048454389,
560.5474854,0.01676578075,560.5474854,0.04119086266,
559.949707,0.01412068773,559.949707,0.04031496868,
559.5012817,0.01583783142,559.5012817,0.04187096655,
559.0527954,0.01187492628,559.0527954,0.03907409683,
558.4547729,0.01508790534,558.4547729,0.0388446562,
558.0061646,0.01439313404,558.0061646,0.04005506262,
557.5575562,0.01593094692,557.5575562,0.03976362571,
556.9592896,0.01537887566,556.9592896,0.04000709206,
556.5105591,0.01588895172,556.5105591,0.04038299993,
556.0617676,0.01454785187,556.0617676,0.0392916128,
555.4633179,0.01593065262,555.4633179,0.04036376625,
555.0144043,0.01573093794,555.0144043,0.03886082023,
554.5654297,0.01185295265,554.5654297,0.0370782949,
553.9667969,0.01662232168,553.9667969,0.03806744516,
553.5177002,0.01548176538,553.5177002,0.03716409579,
553.0686035,0.01532730553,553.0686035,0.03721432015,
552.4697266,0.014972087,552.4697266,0.03691567853,
552.0205078,0.0154369697,552.0205078,0.03797398135,
551.571228,0.01574387401,551.571228,0.0367237404,
550.9721069,0.01436038408,550.9721069,0.0352216363,
550.5227661,0.01499320101,550.5227661,0.0356277898,
550.0733032,0.01716232486,550.0733032,0.03607906774,
549.473999,0.01528158691,549.473999,0.0342550166,
549.0244751,0.01618593931,549.0244751,0.03460307419,
548.5748901,0.01567036286,548.5748901,0.03512196243,
547.9753418,0.01427752711,547.9753418,0.03452371806,
547.5256348,0.01457285322,547.5256348,0.03477850929,
546.9259644,0.0167263411,546.9259644,0.03602292761,
546.4761963,0.01487459429,546.4761963,0.0341601558,
546.0263062,0.015128511,546.0263062,0.03416107967,
545.4264526,0.01593306847,545.4264526,0.03457571194,
544.9764404,0.01536763832,544.9764404,0.03395498917,
544.5264282,0.01559471525,544.5264282,0.03243125603,
543.9263306,0.01617758349,543.9263306,0.03338442743,
543.4762573,0.0159170907,543.4762573,0.03439901397,
543.026062,0.01535785012,543.026062,0.03290343285,
542.4257813,0.01531017013,542.4257813,0.0330087468,
541.9754639,0.01523734722,541.9754639,0.03337324783,
541.5251465,0.01520539075,541.5251465,0.03388641402,
541.0747681,0.01569964178,541.0747681,0.03453050181,
540.4741821,0.01580148004,540.4741821,0.03390261903,
540.0237427,0.01494507957,540.0237427,0.03335446492,
539.5731812,0.01453013159,539.5731812,0.03247195482,
538.9724121,0.01588583738,538.9724121,0.03304231912,
538.5217896,0.01595331728,538.5217896,0.03273765743,
538.071106,0.01536165737,538.071106,0.03189414367,
537.4700928,0.01578110643,537.4700928,0.03350680321,
537.0192871,0.01619792357,537.0192871,0.03303851932,
536.5684814,0.01591486298,536.5684814,0.03397491947,
535.9672852,0.01437049732,535.9672852,0.03197134659,
535.5162964,0.0176427681,535.5162964,0.03355842456,
535.0653076,0.01677581668,535.0653076,0.03247103095,
534.4639282,0.01679621264,534.4639282,0.03245825693,
534.0128174,0.01625058986,534.0128174,0.03230642527,
533.5616455,0.01513598952,533.5616455,0.03265763819,
532.960022,0.01552063692,532.960022,0.03240417317,
532.5087891,0.01466050465,532.5087891,0.03318814933,
532.0574951,0.01503058244,532.0574951,0.03244007006,
531.4556885,0.01623753086,531.4556885,0.03403549641,
531.0042725,0.01576612704,531.0042725,0.03233548254,
530.5527954,0.01622320898,530.5527954,0.03314068168,
529.9508057,0.01659042388,529.9508057,0.03277768567,
529.4992065,0.01635199413,529.4992065,0.03285465389,
529.0476074,0.01549611706,529.0476074,0.03284318,
528.4453735,0.0159374997,528.4453735,0.03383651748,
527.9936523,0.0151040135,527.9936523,0.03420642018,
527.5418701,0.01450269669,527.5418701,0.03270826489,
526.9394531,0.01573029347,526.9394531,0.03287503868,
526.4876099,0.01545840129,526.4876099,0.03381757438,
526.0357056,0.01583474316,526.0357056,0.03342781588,
525.4330444,0.01665734127,525.4330444,0.03435810655,
524.9810181,0.01566971838,524.9810181,0.03358286619,
524.5289917,0.01647519879,524.5289917,0.03369298577,
523.9261475,0.014796542,523.9261475,0.03233199567,
523.473938,0.01735224575,523.473938,0.03356513381,
523.0217285,0.01721774787,523.0217285,0.03437214345,
522.569458,0.01431273296,522.569458,0.03317426518,
521.9663696,0.01387198269,521.9663696,0.03203203902,
521.5140381,0.01619053446,521.5140381,0.03455847502,
521.0615845,0.01619864814,521.0615845,0.03393469378,
520.458313,0.01718604937,520.458313,0.03387575224,
520.0057983,0.01606225222,520.0057983,0.03316007182,
519.5532227,0.01573120616,519.5532227,0.03277296945,
518.949707,0.01603625156,518.949707,0.03313531727,
518.4970703,0.01779403538,518.4970703,0.03453036025,
518.0443115,0.01634798944,518.0443115,0.03325325996,
517.4406128,0.01584362984,517.4406128,0.0337317884,
516.987793,0.01466760039,516.987793,0.03339155763,
516.5349731,0.01590052433,516.5349731,0.0326406993,
515.9310913,0.01588795707,515.9310913,0.03467329964,
515.4780884,0.0161849726,515.4780884,0.03359147906,
515.0250854,0.0173609741,515.0250854,0.03335893527,
514.5720215,0.01589934155,514.5720215,0.03328827769,
513.9678955,0.01470262371,513.9678955,0.03179069236,
513.5147095,0.01578325406,513.5147095,0.0332904309,
513.0615234,0.0153154796,513.0615234,0.03144983202,
512.4571533,0.0161748156,512.4571533,0.03378866985,
512.0038452,0.01650119945,512.0038452,0.03354427218,
511.5504761,0.01462342311,511.5504761,0.03246902302,
510.9459229,0.01644785516,510.9459229,0.03317736462,
510.4924622,0.01724947616,510.4924622,0.03445934504,
510.0389709,0.01734717935,510.0389709,0.0332531482,
509.4342346,0.01593022235,509.4342346,0.03234774992,
508.9806213,0.01500164159,508.9806213,0.02955906093,
508.5269775,0.01780873351,508.5269775,0.03180127591,
508.0732727,0.01702053659,508.0732727,0.03393206373,
507.4682922,0.01487872005,507.4682922,0.03080493398,
507.0144958,0.01644895785,507.0144958,0.03204558417,
506.5606384,0.01624822617,506.5606384,0.03465440497,
505.9554443,0.01639349759,505.9554443,0.03313796967,
505.5014954,0.0169641953,505.5014954,0.03287956119,
505.0475159,0.01571443118,505.0475159,0.03169124201,
504.4421387,0.0146156596,504.4421387,0.03215640038,
503.9880371,0.01766387746,503.9880371,0.03430302814,
503.533905,0.01645901427,503.533905,0.03362619132,
502.9283447,0.01889545284,502.9283447,0.03393474966,
502.4740906,0.01630557701,502.4740906,0.03277224302,
502.0198059,0.01684424281,502.0198059,0.03383520246,
501.5654907,0.01625760458,501.5654907,0.03311369196,
500.9596558,0.01486580819,500.9596558,0.03173860908,
500.505249,0.01618739031,500.505249,0.03337900713,
500.0507813,0.01540556084,500.0507813,0.03318767622,
499.4447327,0.01604038849,499.4447327,0.03421776369,
498.9901733,0.01593457349,498.9901733,0.03199547902,
498.535553,0.01681851782,498.535553,0.03353356197,
497.9293518,0.017483145,497.9293518,0.03303659335,
497.4746399,0.0163986329,497.4746399,0.03273120895,
497.0198975,0.01477597281,497.0198975,0.03253572807,
496.565094,0.01704164408,496.565094,0.03433947638,
495.9586182,0.01701703854,495.9586182,0.033462625,
495.5037231,0.01674665324,495.5037231,0.03376276046,
495.0487671,0.01547637302,495.0487671,0.03443372995,
494.4421387,0.01539282128,494.4421387,0.03299670666,
493.9870911,0.01673871651,493.9870911,0.03450135142,
493.5319824,0.01655548997,493.5319824,0.03403519094,
492.9251404,0.01666153781,492.9251404,0.0344161056,
492.4699707,0.01673836634,492.4699707,0.03493143246,
492.01474,0.01645326056,492.01474,0.03410832211,
491.5594788,0.01646675728,491.5594788,0.03428759426,
490.9523926,0.01684480906,490.9523926,0.03489785269,
490.4970093,0.01672701351,490.4970093,0.03371153399,
490.0415955,0.01677215844,490.0415955,0.034793064,
489.4343262,0.01687782817,489.4343262,0.03573165461,
488.9787903,0.01673546061,488.9787903,0.03571330383,
488.5232544,0.01684136316,488.5232544,0.03557530418,
488.0676575,0.01685751043,488.0676575,0.0361196883,
487.460144,0.01665489376,487.460144,0.0358860679,
487.004425,0.01695076562,487.004425,0.03694036603,
486.5487061,0.01657915674,486.5487061,0.03734494373,
485.940979,0.01698274165,485.940979,0.03814126179,
485.4851379,0.01565592363,485.4851379,0.03825047985,
485.0292664,0.01693370007,485.0292664,0.0383823216,
484.5733643,0.01662756689,484.5733643,0.0381234847,
483.9653931,0.01688574068,483.9653931,0.03893202171,
483.5093689,0.01754424348,483.5093689,0.04065674543,
483.0533142,0.01687728986,483.0533142,0.03993134201,
482.4451904,0.0164809525,482.4451904,0.0389066264,
481.9890137,0.01618800871,481.9890137,0.03874236345,
481.5328369,0.01745614223,481.5328369,0.03871213645,
480.9244995,0.01728901826,480.9244995,0.04023569822,
480.4682007,0.01584328152,480.4682007,0.03864801675,
480.0118713,0.01666164584,480.0118713,0.03870395944,
479.555481,0.0163364578,479.555481,0.03721197695,
478.9469299,0.01624747366,478.9469299,0.03767069802,
478.490448,0.01783872582,478.490448,0.03825576603,
478.0339355,0.01523528341,478.0339355,0.03660397977,
477.4251709,0.01744010858,477.4251709,0.03805074841,
476.9685669,0.01583638042,476.9685669,0.03620600328,
476.5119019,0.01647708192,476.5119019,0.03557198867,
476.0552063,0.01515547652,476.0552063,0.03549894691,
475.446228,0.01741601899,475.446228,0.03590198234,
474.9894409,0.01700322703,474.9894409,0.03477570415,
474.5325928,0.01648624986,474.5325928,0.03561997786,
474.0757141,0.01523370109,474.0757141,0.03602720425,
473.4664917,0.01611444727,473.4664917,0.03636978939,
473.0095215,0.01707343943,473.0095215,0.03506723791,
472.5525208,0.01766557619,472.5525208,0.03647735342,
471.9430847,0.01568480022,471.9430847,0.03494871408,
471.4859924,0.01725680381,471.4859924,0.03481979296,
471.0288391,0.01693876088,471.0288391,0.03497480601,
470.5716553,0.01633108221,470.5716553,0.03480871394,
469.9620056,0.0159804672,469.9620056,0.03297034279,
469.5047302,0.01621133089,469.5047302,0.03422193602,
469.0473938,0.01712069288,469.0473938,0.03456895798,
468.437561,0.01611952484,468.437561,0.03370037302,
467.9801636,0.01684930176,467.9801636,0.03491962329,
467.5227051,0.0172542166,467.5227051,0.03470666707,
467.0651855,0.01640941203,467.0651855,0.03386920318,
466.4551392,0.01569779031,466.4551392,0.03265250474,
465.9975281,0.01734909229,465.9975281,0.03405515105,
465.539917,0.01680323482,465.539917,0.03232878819,
464.929657,0.01654809527,464.929657,0.03217833862,
464.4719238,0.01633780263,464.4719238,0.03371550515,
464.0141602,0.01676096581,464.0141602,0.03397827595,
463.556366,0.01781868562,463.556366,0.03345772997,
462.9458923,0.0169202704,462.9458923,0.03341504186,
462.4879761,0.01641003042,462.4879761,0.03253661841,
462.0300293,0.01653704233,462.0300293,0.03328419477,
461.572052,0.01611624658,461.572052,0.0320821479,
460.9613342,0.01605814323,460.9613342,0.03293149918,
460.5032654,0.01663321443,460.5032654,0.03276783228,
460.045166,0.01697477512,460.045166,0.03294911981,
459.4342651,0.01669397764,459.4342651,0.03288592771,
458.9760742,0.01612615958,458.9760742,0.03209360316,
458.5178223,0.0161351338,458.5178223,0.03273536637,
458.0595093,0.01492570899,458.0595093,0.03208351135,
457.4484253,0.01690508984,457.4484253,0.03195276484,
456.9900208,0.01733211987,456.9900208,0.03281629458,
456.5316162,0.01706708595,456.5316162,0.03210541978,
456.0731506,0.0170815438,456.0731506,0.03152347729,
455.461792,0.01582803205,455.461792,0.03100464121,
455.0032654,0.01751160435,455.0032654,0.03242280334,
454.5446777,0.01798104867,454.5446777,0.03148952127,
453.933136,0.01734200679,453.933136,0.03126894683,
453.4744568,0.01770809479,453.4744568,0.03056657128,
453.0157471,0.01692083478,453.0157471,0.03090303764,
452.5569763,0.01786313392,452.5569763,0.03150530159,
451.9452209,0.0173696503,451.9452209,0.03115882911,
451.4863892,0.0186166279,451.4863892,0.03184422478,
451.0274963,0.01859563403,451.0274963,0.03149995953,
450.5685425,0.01780422963,450.5685425,0.03149283305,
449.9565735,0.01825139485,449.9565735,0.03153065965,
449.4975586,0.01811270602,449.4975586,0.03091490641,
449.0385132,0.01839698665,449.0385132,0.0302839838,
448.4263611,0.01815097779,448.4263611,0.03087504953,
447.9671936,0.01839409769,447.9671936,0.0305396039,
447.5080261,0.01819224842,447.5080261,0.03065364994,
447.0487976,0.01894698851,447.0487976,0.03168957308,
446.4364319,0.01802500151,446.4364319,0.03140744939,
445.9770813,0.01884714141,445.9770813,0.03123495542,
445.5177307,0.01808377542,445.5177307,0.0314014107,
445.0583496,0.01820350438,445.0583496,0.03199001774,
444.4457397,0.01988296956,444.4457397,0.03344419971,
443.9862671,0.01874904521,443.9862671,0.03205597773,
443.5267334,0.01849327423,443.5267334,0.03215910494,
443.0671692,0.01734176464,443.0671692,0.03255810216,
442.4543457,0.01819208637,442.4543457,0.03316470981,
441.9946899,0.01799572632,441.9946899,0.0317813307,
441.5350037,0.01847525686,441.5350037,0.03294811398,
441.0752869,0.01758381166,441.0752869,0.03248232976,
440.4622498,0.01725828461,440.4622498,0.03336578235,
440.0024414,0.01680272259,440.0024414,0.03328145668,
439.542572,0.01767711528,439.542572,0.03490523249,
438.9293823,0.01824772358,438.9293823,0.03486596048,
438.4694214,0.01797495224,438.4694214,0.03521234542,
438.0094299,0.01720896922,438.0094299,0.03522899374,
437.549408,0.01833944023,437.549408,0.03563090786,
436.9360046,0.01805614121,436.9360046,0.03481261432,
436.4758911,0.01766201667,436.4758911,0.03614357114,
436.0157471,0.0187050458,436.0157471,0.0365582183,
435.555542,0.01863200217,435.555542,0.03594832122,
434.9418945,0.01824588701,434.9418945,0.0351395607,
434.4816284,0.01781318337,434.4816284,0.03568337113,
434.0213318,0.01849500276,434.0213318,0.03361044452,
433.5609741,0.01778974757,433.5609741,0.03535958007,
432.947113,0.01802443527,432.947113,0.03489689901,
432.4866638,0.01813723892,432.4866638,0.03459718451,
432.0261841,0.01824040711,432.0261841,0.03506670147,
431.5656738,0.01786801778,431.5656738,0.03682941943,
430.9515991,0.01793944836,430.9515991,0.03550953418,
430.4909973,0.01835224032,430.4909973,0.03509838879,
430.030365,0.01793844998,430.030365,0.03560106829,
429.5697021,0.01771054976,429.5697021,0.03620715812,
428.9554138,0.01782774739,428.9554138,0.03549911454,
428.4946594,0.01723078452,428.4946594,0.03579917178,
428.033844,0.01796402596,428.033844,0.03599725291,
427.5730286,0.01892159879,427.5730286,0.03650249541,
426.9585266,0.01882921718,426.9585266,0.03692759946,
426.4975891,0.01867261715,426.4975891,0.03683593124,
426.0366211,0.01900726557,426.0366211,0.03724469244,
425.5756531,0.01859136671,425.5756531,0.03728288412,
424.960907,0.01946612075,424.960907,0.03782594204,
424.4998474,0.0185101293,424.4998474,0.03665230796,
424.0387268,0.01983240619,424.0387268,0.03718981147,
423.4238281,0.01872072183,423.4238281,0.03656111658,
422.9626465,0.01933053508,422.9626465,0.03606551141,
422.5014038,0.01920730248,422.5014038,0.03618526831,
422.0401306,0.01898930967,422.0401306,0.03516709432,
421.4250183,0.01931795105,421.4250183,0.03599919379,
420.9636536,0.01986148022,420.9636536,0.03560331464,
420.5022583,0.01804003306,420.5022583,0.03480091691,
420.0408325,0.01936612651,420.0408325,0.03462322801,
419.4255371,0.01884800568,419.4255371,0.03458543867,
418.9640198,0.01982381754,418.9640198,0.03510085866,
418.5024414,0.02088340931,418.5024414,0.03564329818,
418.040863,0.01932482608,418.040863,0.03546150029,
417.425354,0.01861441322,417.425354,0.03361561522,
416.9636536,0.01975044981,416.9636536,0.03338099271,
416.5019531,0.01896021143,416.5019531,0.03353009745,
416.0401917,0.01915552095,416.0401917,0.03325166553,
415.4244995,0.02023626305,415.4244995,0.03385529667,
414.9626465,0.01856845431,414.9626465,0.03293766826,
414.5007935,0.01951000839,414.5007935,0.03363480419,
414.0388794,0.01958398521,414.0388794,0.0332172662,
413.5769348,0.01994061284,413.5769348,0.03419645131,
412.960968,0.01937800832,412.960968,0.03395232931,
412.4989319,0.01979382336,412.4989319,0.03413904086,
412.0368652,0.02053116448,412.0368652,0.03486163914,
411.5747681,0.01960824989,411.5747681,0.03369642794,
410.9585876,0.01914134435,410.9585876,0.0340860635,
410.4964294,0.01944895834,410.4964294,0.03412114829,
410.0342102,0.02052017301,410.0342102,0.03361830115,
409.5719604,0.01922380738,409.5719604,0.03328604251,
408.9555664,0.0195061639,408.9555664,0.03351245075,
408.4932251,0.02004559152,408.4932251,0.03414827958,
408.0308533,0.02089462802,408.0308533,0.03364976868,
407.5684509,0.01980609819,407.5684509,0.03315252811,
406.9518738,0.01983842067,406.9518738,0.03325393051,
406.4893799,0.01971415058,406.4893799,0.03258279711,
406.0268555,0.02071708068,406.0268555,0.03348546848,
405.5643005,0.02087653801,405.5643005,0.03287118301,
404.9475098,0.02107276395,404.9475098,0.03462067619,
404.4848633,0.02121993154,404.4848633,0.03468028083,
404.0221863,0.02074108273,404.0221863,0.03348144144,
403.5594788,0.02076625265,403.5594788,0.03314626962,
402.9424744,0.02307990752,402.9424744,0.03413764015,
402.4797058,0.02081925981,402.4797058,0.03193755075,
402.0168762,0.02201650105,402.0168762,0.03369396552,
401.5540161,0.02140236087,401.5540161,0.03297458962,
400.9367981,0.02109904215,400.9367981,0.03387309238,
400.473877,0.0220942013,400.473877,0.03450398892,
400.0108948,0.02250161208,400.0108948,0.03288176656,
399.5478821,0.0256965626,399.5478821,0.03451749682,
398.930481,0.02273916081,398.930481,0.03379113227,
398.4674072,0.02450171858,398.4674072,0.03510919213,
398.0042725,0.02404588647,398.0042725,0.03367055207,
397.5411072,0.02351051569,397.5411072,0.03385330737,
396.9235229,0.02440099604,396.9235229,0.03296704963,
396.4602661,0.02557730302,396.4602661,0.03438130394,
395.9970093,0.02511128969,395.9970093,0.03407080099,
395.5336914,0.02655383945,395.5336914,0.03444311768,
395.070343,0.02672142908,395.070343,0.03525229543,
394.4524841,0.02648469247,394.4524841,0.03490388393,
393.9890747,0.02643266693,393.9890747,0.03350803256,
393.5256042,0.02746065333,393.5256042,0.03390306607,
393.0621338,0.02939220145,393.0621338,0.03514318168,
392.4440918,0.02792648971,392.4440918,0.03307639807,
391.9805298,0.02798034996,391.9805298,0.0336297974,
391.5169067,0.0287561547,391.5169067,0.03378813714,
391.0532837,0.03147580102,391.0532837,0.03428529575,
390.4350281,0.03133101389,390.4350281,0.03476981446,
389.9713135,0.03321002796,389.9713135,0.03484716639,
389.5075684,0.0323517397,389.5075684,0.03437757865,
389.0437927,0.03322836012,389.0437927,0.03436505422,
388.425354,0.03555819392,388.425354,0.03439139202,
387.9614868,0.03426879644,387.9614868,0.03300612047,
387.4975891,0.03525737673,387.4975891,0.03428011388,
387.0336609,0.03704060242,387.0336609,0.03558783233,
386.5697021,0.03518138453,386.5697021,0.03466228023,
385.9510193,0.03723820671,385.9510193,0.03406385705,
385.486969,0.03648847342,385.486969,0.03391138092,
385.0229187,0.03831841797,385.0229187,0.03475683182,
384.5588074,0.03698758036,384.5588074,0.03337744251,
383.9399414,0.0380985029,383.9399414,0.03339001909,
383.4757385,0.03961471841,383.4757385,0.0350465551,
383.0115356,0.03926347569,383.0115356,0.03577538952,
382.5472717,0.03962353989,382.5472717,0.03328179196,
381.9282227,0.04128744453,381.9282227,0.03443140537,
381.4638977,0.04113667458,381.4638977,0.03422025591,
380.9995422,0.0424958095,380.9995422,0.03365723789,
380.5351257,0.04256021604,380.5351257,0.03450261429,
380.0707092,0.04196627066,380.0707092,0.03219860792,
379.451416,0.04323557764,379.451416,0.03361402452,
378.986908,0.04415968433,378.986908,0.03324412182,
378.5223694,0.04369535297,378.5223694,0.03364537656,
378.0578003,0.04185543209,378.0578003,0.03450294957,
377.438324,0.0436126627,377.438324,0.03497163579,
376.9736633,0.04326946661,376.9736633,0.03356636688,
376.5089722,0.04341902956,376.5089722,0.0363054499,
376.044281,0.0440162532,376.044281,0.03459659591,
375.4245911,0.04304657504,375.4245911,0.03576276824,
374.9598083,0.04246001318,374.9598083,0.03578044847,
374.4949951,0.04228535667,374.4949951,0.03593187034,
374.0301514,0.04446139932,374.0301514,0.03737885132,
373.5652466,0.04158523306,373.5652466,0.03571664542,
372.945343,0.04235278443,372.945343,0.03629953787,
372.4804077,0.04146323726,372.4804077,0.03507094085,
372.0154114,0.03914247081,372.0154114,0.0372918807,
371.5503845,0.03544425592,371.5503845,0.0396530889,
370.9302979,0.03509875387,370.9302979,0.03944278881,
370.4651794,0.03509128839,370.4651794,0.03989008069,
370.000061,0.03431882709,370.000061,0.03926030174,
369.5348816,0.03442313895,369.5348816,0.03933395073,
369.0697021,0.03562202677,369.0697021,0.04069190845,
368.4493713,0.03576102853,368.4493713,0.03933508322,
367.9841003,0.03579312563,367.9841003,0.03914334998,
367.5187988,0.03576206788,367.5187988,0.04003411531,
367.0534668,0.03553937003,367.0534668,0.04029837996,
366.4329529,0.03654467314,366.4329529,0.03994346038,
365.9675598,0.03605766594,365.9675598,0.04073210806,
365.5021057,0.03559471667,365.5021057,0.03965706006,
365.0366516,0.03632861003,365.0366516,0.04057829455,
364.5711365,0.03651198372,364.5711365,0.04004240409,
363.9504089,0.03694980964,363.9504089,0.04146070406,
363.4848328,0.03728223592,363.4848328,0.04033320397,
363.0192261,0.0365164578,363.0192261,0.04010928422,
362.5535889,0.03606891632,362.5535889,0.04067346081,
361.9326782,0.03599753231,361.9326782,0.04036646709,
361.4669495,0.03677290305,361.4669495,0.04082625732,
361.0012207,0.03608945012,361.0012207,0.04049863666,
360.5354309,0.03697083518,360.5354309,0.04068085179,
360.0696411,0.03637617826,360.0696411,0.04053390399,
359.4485168,0.03785054013,359.4485168,0.04072451964,
358.9826355,0.03712989017,358.9826355,0.0406277217,
358.5167236,0.03656373546,358.5167236,0.04100209102,
358.0507813,0.03661051393,358.0507813,0.04120776802,
357.4294739,0.03731890395,357.4294739,0.0418497026,
356.9634399,0.03722923994,356.9634399,0.04179078713,
356.497406,0.03711404651,356.497406,0.04180777445,
356.031311,0.03690158948,356.031311,0.04232846946,
355.5652161,0.03720151633,355.5652161,0.04173581302,
354.9436951,0.03736384213,354.9436951,0.04187065363,
354.4775085,0.03640052676,354.4775085,0.04158996046,
354.0112915,0.03671112284,354.0112915,0.04194220901,
353.5450439,0.03700063005,353.5450439,0.04306646809,
352.9233398,0.0370281972,352.9233398,0.0432523936,
352.4570313,0.03634997457,352.4570313,0.04230906814,
351.9906921,0.03658429533,351.9906921,0.04308204725,
351.5243225,0.03666780144,351.5243225,0.0433887355,
351.0579224,0.03658978641,351.0579224,0.04293125495,
350.4360046,0.0361206159,350.4360046,0.04367142171,
349.9695129,0.03534787148,349.9695129,0.04305569082,
349.5030212,0.03701959923,349.5030212,0.04338736087,
349.0364685,0.03565035388,349.0364685,0.04288782179,
348.5699158,0.03598887101,348.5699158,0.04267966375,
347.9477844,0.03632405028,347.9477844,0.0438497588,
347.4811401,0.03561733663,347.4811401,0.04319197312,
347.0144653,0.03561573476,347.0144653,0.04365499318,
346.5477905,0.03579180688,346.5477905,0.04358415678,
345.9254761,0.03575563058,345.9254761,0.04409687594,
345.4587097,0.03646437451,345.4587097,0.04492988437,
344.9919128,0.03546071425,344.9919128,0.04328770936,
344.5250854,0.03476303071,344.5250854,0.04347667843,
344.0582275,0.03472884744,344.0582275,0.04394962639,
343.4356995,0.03558139876,343.4356995,0.04411630332,
342.9687805,0.03516305238,342.9687805,0.04476415738,
342.5018311,0.03431210667,342.5018311,0.04489110038,
342.0348206,0.03501888737,342.0348206,0.04535829276,
341.5678101,0.03399325162,341.5678101,0.0448378548,
340.9450989,0.03438441455,340.9450989,0.04602556303,
340.4779968,0.03452758491,340.4779968,0.04556592926,
340.0108948,0.03339071944,340.0108948,0.04532119632,
339.5437317,0.03370658308,339.5437317,0.04526698217,
339.0765686,0.03371464089,339.0765686,0.04417593405,
338.4536438,0.03392117471,338.4536438,0.04553189129,
337.9863892,0.03421252593,337.9863892,0.04560045898,
337.5191345,0.03251318634,337.5191345,0.04492049664,
337.0518188,0.03286143765,337.0518188,0.04610629752,
336.4287109,0.03271683306,336.4287109,0.04551728815,
335.9613342,0.03332556039,335.9613342,0.04603977874,
335.4939575,0.03304843605,335.4939575,0.04528114572,
335.0265198,0.032575652,335.0265198,0.04583369941,
334.559082,0.03304441273,334.559082,0.04670025781,
333.9357605,0.03219908103,333.9357605,0.04579578713,
333.4682312,0.03242392093,333.4682312,0.04548817128,
333.0006714,0.03267792612,333.0006714,0.04642921686,
332.5331116,0.03089014255,332.5331116,0.04563197494,
332.0654907,0.03229097649,332.0654907,0.04618673027,
331.4419556,0.03165471181,331.4419556,0.04638217762,
330.9743042,0.03202752396,330.9743042,0.04722769186,
330.5065918,0.03004321642,330.5065918,0.04567493498,
330.0388489,0.03117181733,330.0388489,0.04700059816,
329.571106,0.0317065008,329.571106,0.04655457288,
328.9473572,0.03091927059,328.9473572,0.04683731124,
328.4795227,0.03050078079,328.4795227,0.04757481068,
328.0116882,0.03169828653,328.0116882,0.04724068195,
327.5437927,0.03010355495,327.5437927,0.04625819623,
327.0758972,0.03066598438,327.0758972,0.04708131403,
326.4519653,0.03100655973,326.4519653,0.04653362557,
325.9839783,0.0305013638,325.9839783,0.04748083651,
325.5159607,0.03041989543,325.5159607,0.04752195999,
325.0479431,0.03005165048,325.0479431,0.04675900564,
324.4238281,0.03065937199,324.4238281,0.04741511866,
323.9557495,0.03003625385,323.9557495,0.04747064412,
323.4876099,0.0297655724,323.4876099,0.04759982601,
323.0194397,0.02983452193,323.0194397,0.04785619304,
322.5512695,0.02940159105,322.5512695,0.04800309613,
321.9269714,0.02863162942,321.9269714,0.04854960367,
321.4587402,0.02972182818,321.4587402,0.04871321842,
320.990448,0.02834366634,320.990448,0.04742386937,
320.5221558,0.0285419412,320.5221558,0.04858934879,
320.0538025,0.0296902284,320.0538025,0.04851715267,
319.4293213,0.02906990983,319.4293213,0.04864351824,
318.960907,0.02840415575,318.960907,0.04877241328,
318.4924927,0.02852889337,318.4924927,0.04866205156,
318.0240479,0.02903971449,318.0240479,0.05001273751,
317.5555725,0.0291767884,317.5555725,0.0489747934,
316.9308777,0.0288176164,316.9308777,0.05023089424,
316.4623413,0.02902792394,316.4623413,0.04986387491,
315.9937439,0.0282687638,315.9937439,0.04911300167,
315.5251465,0.02885523811,315.5251465,0.04964413121,
315.0565186,0.02789391577,315.0565186,0.04971697927,
314.4316406,0.02814277448,314.4316406,0.04930611327,
313.9629517,0.0286840573,313.9629517,0.05117806047,
313.4942322,0.02793888375,313.4942322,0.05056029558,
313.0255127,0.02867700532,313.0255127,0.0511281155,
312.5567322,0.02830981836,312.5567322,0.05035191402,
311.9316406,0.02794609033,311.9316406,0.0507479459,
311.4628296,0.02811761387,311.4628296,0.05120217428,
310.9939575,0.02804493159,310.9939575,0.0511308834,
310.5250549,0.02767938375,310.5250549,0.05135032907,
310.0561523,0.02813876979,310.0561523,0.05151949078,
309.4308777,0.02773404121,309.4308777,0.05155242607,
308.9619141,0.02743566968,308.9619141,0.05199553818,
308.4928894,0.0281910561,308.4928894,0.05287542567,
308.0238647,0.02815945633,308.0238647,0.05300838873,
307.5548096,0.02748053521,307.5548096,0.0529076755,
306.9293518,0.02807671577,306.9293518,0.0534978956,
306.4602356,0.02828848921,306.4602356,0.05335629731,
305.9910889,0.02759769745,305.9910889,0.05338471755,
305.5219116,0.02850442939,305.5219116,0.0544539243,
305.0527039,0.02806312963,305.0527039,0.05388051271,
304.427063,0.02835601754,304.427063,0.05466901138,
303.9577942,0.02825044654,303.9577942,0.05535095558,
303.4885254,0.02812029421,303.4885254,0.05548853427,
303.0191956,0.02847286314,303.0191956,0.05564719066,
302.5498657,0.02787533961,302.5498657,0.05585182831,
301.9240417,0.02853787877,301.9240417,0.055951491,
301.4546204,0.0281840954,301.4546204,0.05654014647,
300.985199,0.02866320685,300.985199,0.05739133433,
300.5157471,0.02866575122,300.5157471,0.05749646202,
300.0462646,0.02893204056,300.0462646,0.05787892267,
299.5767517,0.02870460413,299.5767517,0.05792228132,
298.9507141,0.02919093519,298.9507141,0.05866511911,
298.4811401,0.02885888889,298.4811401,0.05849990621,
298.0115662,0.02878373116,298.0115662,0.05887539312,
297.5419312,0.02853541821,297.5419312,0.0593402572,
297.0722961,0.02879891731,297.0722961,0.05959842354,
296.4460449,0.0292002093,296.4460449,0.05986054987,
295.9763489,0.02902961336,295.9763489,0.06027076393,
295.5066223,0.02914140746,295.5066223,0.06017414853,
295.0368652,0.02910943516,295.0368652,0.05971365049,
294.5670776,0.02906445786,294.5670776,0.06104009226,
293.9406738,0.02943056636,293.9406738,0.06148965284,
293.4708252,0.02944713086,293.4708252,0.06170440465,
293.0009766,0.02946555242,293.0009766,0.06233979017,
292.5310669,0.02934492193,292.5310669,0.06275307387,
292.0611572,0.02953750454,292.0611572,0.0627527684,
291.4345703,0.02948680148,291.4345703,0.06289002299,
290.9645996,0.02967016213,290.9645996,0.06311061233,
290.4945984,0.02961897291,290.4945984,0.06328891218,
290.0245667,0.02988554351,290.0245667,0.06395808607,
289.5545044,0.02940250561,289.5545044,0.0636747703,
288.9277344,0.03023239039,288.9277344,0.06497552991,
288.4576416,0.02994519472,288.4576416,0.06478977948,
287.9874878,0.02998943254,287.9874878,0.06481063366,
287.517334,0.02994988114,287.517334,0.06424938142,
287.0471497,0.03045718558,287.0471497,0.06545615196,
286.5769348,0.03015663289,286.5769348,0.06522133946,
285.9499512,0.03021687642,285.9499512,0.06561792642,
285.4796753,0.03032781184,285.4796753,0.06574219465,
285.0093994,0.03052680008,285.0093994,0.06594188511,
284.539093,0.03027679585,284.539093,0.06667216867,
284.0687561,0.03022830933,284.0687561,0.06603062898,
283.4415894,0.03040770814,283.4415894,0.06610389799,
282.9711914,0.0307850372,282.9711914,0.06696756184,
282.5007629,0.03065367788,282.5007629,0.06692136079,
282.030304,0.0304454118,282.030304,0.06689303368,
281.559845,0.03105738387,281.559845,0.06772655994,
280.9324951,0.03083569556,280.9324951,0.06737843901,
280.4619751,0.03099307604,280.4619751,0.06828760356,
279.9914246,0.03135889396,279.9914246,0.06809334457,
279.5208435,0.03077920154,279.5208435,0.0689047575,
279.0502625,0.03091329522,279.0502625,0.06841558218,
278.4227295,0.03099780157,278.4227295,0.06869927794,
277.9520874,0.03131824359,277.9520874,0.06861686707,
277.4814148,0.03136117756,277.4814148,0.06848343462,
277.0107117,0.03182801232,277.0107117,0.06908509135,
276.539978,0.03184266388,276.539978,0.06931801885,
276.0692139,0.03195886686,276.0692139,0.06927924603,
275.4414978,0.03241086751,275.4414978,0.06963487715,
274.9707031,0.03183623031,274.9707031,0.07013638318,
274.4998779,0.03216746822,274.4998779,0.07040026039,
274.0289917,0.03223429248,274.0289917,0.07002669573,
273.558136,0.03241147846,273.558136,0.07103021443,
272.9302368,0.0324822478,272.9302368,0.07159386575,
272.4593201,0.0324719809,272.4593201,0.07098086178,
271.9883423,0.03222982958,271.9883423,0.07089902461,
271.5173645,0.03231450915,271.5173645,0.07122405618,
271.0463562,0.03249943256,271.0463562,0.07172440737,
270.5753479,0.03242816031,270.5753479,0.0717080161,
269.9472656,0.03201314434,269.9472656,0.07175091654,
269.4761658,0.03332550451,269.4761658,0.07250312716,
269.0050659,0.03308609128,269.0050659,0.07279627025,
268.5339355,0.03306505829,268.5339355,0.07285476476,
268.0627747,0.03307983279,268.0627747,0.07307199389,
267.4345398,0.0328284651,267.4345398,0.07265894115,
266.9633179,0.03331166878,266.9633179,0.07331526279,
266.4920959,0.03345054761,266.4920959,0.07390581816,
266.0208435,0.03357984498,266.0208435,0.07396797091,
265.5495605,0.03342208639,265.5495605,0.0739113763,
265.0782776,0.0341239199,265.0782776,0.07551236451,
264.4498291,0.0339750573,264.4498291,0.07567872852,
263.9784851,0.03388885036,263.9784851,0.07531441748,
263.5070801,0.03399457037,263.5070801,0.07575761527,
263.0357056,0.03357355297,263.0357056,0.07556152344,
262.56427,0.03398692608,262.56427,0.07650312781,
261.9356689,0.03466354311,261.9356689,0.07755894214,
261.4642029,0.03436965123,261.4642029,0.07689281553,
260.9927063,0.03430778906,260.9927063,0.07630623877,
260.5211792,0.0345521383,260.5211792,0.07644311339,
260.0496216,0.03445483372,260.0496216,0.07729136199,
259.578064,0.03450956568,259.578064,0.07772506773,
258.9492798,0.03495870158,258.9492798,0.07837638259,
258.4776611,0.03442980722,258.4776611,0.07852656394,
258.006012,0.03489246964,258.006012,0.07934505492,
257.5343628,0.03504467383,257.5343628,0.07986334711,
257.0626831,0.03552018106,257.0626831,0.08057895303,
256.4337158,0.03569146618,256.4337158,0.08145409077,
255.9619904,0.03605609015,255.9619904,0.08170053363,
255.4902344,0.0361659117,255.4902344,0.08208240569,
255.0184479,0.03641533107,255.0184479,0.08229776472,
254.5466461,0.0362225771,254.5466461,0.08330207318,
254.0748138,0.03594860062,254.0748138,0.08326143771,
253.4456787,0.03685407713,253.4456787,0.08339619637,
252.9738007,0.03738977015,252.9738007,0.08385064453,
252.5019073,0.03695984185,252.5019073,0.08380960673,
252.0299835,0.03740765899,252.0299835,0.08453895152,
251.5580444,0.03745291755,251.5580444,0.08564594388,
250.9287567,0.03765051067,250.9287567,0.08604670316,
250.4567566,0.03795457259,250.4567566,0.08642364293,
249.9848328,0.03856178001,249.9848328,0.08692806959,
249.5156097,0.03832412884,249.5156097,0.08733811975,
249.0463715,0.03801056743,249.0463715,0.08690084517,
248.5771027,0.03875051439,248.5771027,0.08743406832,
247.9513855,0.03899040818,247.9513855,0.08721469343,
247.4820709,0.03914694861,247.4820709,0.08716691285,
247.0127411,0.03938825428,247.0127411,0.08750416338,
246.5433807,0.03895778954,246.5433807,0.08840940893,
246.0740051,0.03965402767,246.0740051,0.08942902088,
245.4481354,0.03953557834,245.4481354,0.08994194865,
244.978714,0.04027966037,244.978714,0.0909254998,
244.5092621,0.04031326249,244.5092621,0.09134911746,
244.0397949,0.04043561593,244.0397949,0.09077172726,
243.5702972,0.0407943204,243.5702972,0.0914138481,
242.9442749,0.04090201855,242.9442749,0.09124255925,
242.4747467,0.0413845554,242.4747467,0.09198793024,
242.005188,0.0414224565,242.005188,0.09216885269,
241.5355988,0.0418009609,241.5355988,0.09194889665,
241.0659943,0.04193336889,241.0659943,0.09242834151,
240.4398346,0.04291242361,240.4398346,0.09354624152,
239.9701843,0.04398505762,239.9701843,0.0946701169,
239.5005188,0.04375140741,239.5005188,0.09490630776,
239.0308228,0.04286685213,239.0308228,0.09433179349,
238.5611115,0.04557159543,238.5611115,0.09591031075,
237.9347992,0.04524669796,237.9347992,0.09507752955,
237.4650421,0.04655258358,237.4650421,0.09705104679,
236.9952545,0.04775392264,236.9952545,0.09676115215,
236.5254517,0.04773855209,236.5254517,0.09633623809,
236.0556335,0.0494877398,236.0556335,0.09775377065,
235.429184,0.05091987178,235.429184,0.09781482071,
234.9593048,0.05107436329,234.9593048,0.09793575108,
234.4894257,0.05401903018,234.4894257,0.0987925604,
234.019516,0.05402260646,234.019516,0.1000179723,
233.5495911,0.05641308427,233.5495911,0.1010432467,
232.9229889,0.0578655526,232.9229889,0.1017599925,
232.4530029,0.05989968032,232.4530029,0.1023996025,
231.983017,0.06329914927,231.983017,0.1021305844,
231.5130005,0.06413669884,231.5130005,0.1031533554,
231.0429688,0.06715337187,231.0429688,0.104961589,
230.5729065,0.06854487211,230.5729065,0.1048730612,
229.9461365,0.07207429409,229.9461365,0.1061649248,
229.4760284,0.07499480247,229.4760284,0.1067545488,
229.0059204,0.07729457319,229.0059204,0.1011312604,
228.5357819,0.08204166591,228.5357819,0.1028408334,
228.0656128,0.0851829052,228.0656128,0.1042228937,
227.4387054,0.09070132673,227.4387054,0.1057423577,
226.9684906,0.09605121613,226.9684906,0.1066989452,
226.4982758,0.09904332459,226.4982758,0.1080719456,
226.0280304,0.105230324,226.0280304,0.1098117754,
225.5577698,0.1109498963,225.5577698,0.1114595234,
224.9307098,0.1162173152,224.9307098,0.1123413518,
224.4604034,0.1228620633,224.4604034,0.1140353605,
223.9900818,0.1274045408,223.9900818,0.115358822,
223.5197296,0.1344665736,223.5197296,0.117231898,
223.0493622,0.1406207085,223.0493622,0.1180011258,
222.4221802,0.1476330757,222.4221802,0.1199906766,
221.951767,0.1549497843,221.951767,0.1215762943,
221.4813385,0.1600624323,221.4813385,0.1231204495,
221.0108795,0.168650195,221.0108795,0.1251979917,
220.5404053,0.1759165823,220.5404053,0.1262422055,
220.069931,0.1798495948,220.069931,0.1269311756,
219.4425812,0.1921399683,219.4425812,0.1302784681,
218.9720459,0.198993668,218.9720459,0.1316238046,
218.5014954,0.2070716769,218.5014954,0.1342059672,
218.0309296,0.215525195,218.0309296,0.1358810663,
217.5603333,0.2203371227,217.5603333,0.1373664141,
216.9328613,0.2352987379,216.9328613,0.1402439326,
216.4622192,0.2430875003,216.4622192,0.142188862,
215.9915771,0.2514121234,215.9915771,0.14532803,
215.5209045,0.2592680454,215.5209045,0.147183314,
215.0502167,0.2645400465,215.0502167,0.1476599574,
214.4226074,0.2784866989,214.4226074,0.1512531042,
213.9518738,0.2841030061,213.9518738,0.1531579494,
213.4811249,0.2934485078,213.4811249,0.1562262774,
213.0103607,0.3013943732,213.0103607,0.1579458117,
212.539566,0.3059921265,212.539566,0.1594410837,
212.0687714,0.3164555728,212.0687714,0.1620821953,
211.4409943,0.3242100179,211.4409943,0.1654520631,
210.9701538,0.3335053921,210.9701538,0.168865785,
210.4992828,0.3399176598,210.4992828,0.1706903577,
210.0284119,0.3440046608,210.0284119,0.1715275198,
209.5575104,0.3522270322,209.5575104,0.1756831855,
208.9296112,0.3589755595,208.9296112,0.1787115484,
208.4586639,0.3689800501,208.4586639,0.1826857924,
207.9877014,0.3745256662,207.9877014,0.1854050606,
207.5167236,0.377045691,207.5167236,0.1871648431,
207.0457306,0.3854277432,207.0457306,0.1904589981,
206.5747223,0.3894940317,206.5747223,0.1931757033,
205.9466705,0.396086663,205.9466705,0.1982497573,
205.4756165,0.4017141163,205.4756165,0.2012414634,
205.0045471,0.4042824209,205.0045471,0.2032205015,
204.5334473,0.4105767012,204.5334473,0.207869336,
204.0623474,0.4124985337,204.0623474,0.2108771205,
203.4341736,0.4172032475,203.4341736,0.2156116813,
202.963028,0.4206748903,202.963028,0.2181207687,
202.4918518,0.4229456484,202.4918518,0.2198525071,
202.0206757,0.4274950325,202.0206757,0.2239936739,
201.549469,0.4293105006,201.549469,0.2281648368,
201.0782471,0.4324830174,201.0782471,0.2337919474,
200.4499359,0.4388190806,200.4499359,0.2389191091,
199.9784088,0.4448599517,199.9784088,0.2420554012,
199.5014496,0.4471556246,199.5014496,0.2481945306,
199.0244598,0.4512846172,199.0244598,0.2509917915,
198.5474701,0.449133575,198.5474701,0.2540964484,
198.0704498,0.4529050887,198.0704498,0.2631167769,
197.4344025,0.4533800185,197.4344025,0.2666344643,
196.9573364,0.4542467594,196.9573364,0.2744596004,
196.4802704,0.4549485147,196.4802704,0.2792668641,
196.0031738,0.4558357596,196.0031738,0.2871409357,
195.526062,0.4582917392,195.526062,0.2959625125,
195.0489349,0.4586711526,195.0489349,0.3018449247,
194.5717926,0.4589337707,194.5717926,0.306611985,
193.9355774,0.4578109086,193.9355774,0.315087676,
193.4584045,0.454464674,193.4584045,0.3174287975,
192.9812012,0.4539570212,192.9812012,0.3302326798,
192.5039825,0.4491412938,192.5039825,0.3378780484,
192.0267487,0.4405703247,192.0267487,0.3445808291,
191.5494995,0.4396595359,191.5494995,0.3464449644,
191.0722351,0.4399320185,191.0722351,0.3608233631,
190.4358521,0.4435943067,190.4358521,0.3802445829,
189.9585571,0.4271216691,189.9585571,0.3702539206,

B01,
B01
Collection Time: 7/2/2009 12:16:44 AM
Operator Name  :
Scan Software Version: 3.00(339)
Parameter List :
Instrument                        Cary 50
Instrument Version                3.00
Start (nm)                        1100.0
Stop (nm)                         190.0
X Mode                            Nanometers
Y Mode                            Abs
UV-Vis Scan Rate (nm/min)         300.00
UV-Vis Data Interval (nm)         0.50
UV-Vis Ave. Time (sec)            0.1000
Beam Mode                         Dual Beam
Baseline Correction               On
Baseline Type                     Baseline correction
Baseline File Name
Baseline Std Ref File Name
Cycle Mode                        Off
Comments
Method Log     :
Method Name    :
Date/Time stamp: 7/2/2009 12:07:25 AM
Method Modifications:
UVVIS SAT Changed: 7/2/2009 12:08:10 AM, Old:0.0125, New:0.1000
Common SAT Changed: 7/2/2009 12:08:10 AM, Old:0.0125, New:0.1000
X Start nm Changed: 7/2/2009 12:08:15 AM, Old:  800.0, New: 1100.0
X Stop nm Changed: 7/2/2009 12:08:15 AM, Old:  200.0, New:  190.0
Y Max Abs Changed: 7/2/2009 12:08:15 AM, Old:     1.00, New:     2.00
Common Interval nm Changed: 7/2/2009 12:08:15 AM, Old:     5.00, New:     0.50
Baseline Correction Changed: 7/2/2009 12:08:15 AM, Old:0, New:1
End Method Modifications
<Current Wavelength> , 190.0

B04,
B04
Collection Time: 7/2/2009 12:23:56 AM
Operator Name  :
Scan Software Version: 3.00(339)
Parameter List :
Instrument                        Cary 50
Instrument Version                3.00
Start (nm)                        1100.0
Stop (nm)                         190.0
X Mode                            Nanometers
Y Mode                            Abs
UV-Vis Scan Rate (nm/min)         300.00
UV-Vis Data Interval (nm)         0.50
UV-Vis Ave. Time (sec)            0.1000
Beam Mode                         Dual Beam
Baseline Correction               On
Baseline Type                     Baseline correction
Baseline File Name
Baseline Std Ref File Name
Cycle Mode                        Off
Comments
Method Log     :
Method Name    :
Date/Time stamp: 7/2/2009 12:07:25 AM
Method Modifications:
UVVIS SAT Changed: 7/2/2009 12:08:10 AM, Old:0.0125, New:0.1000
Common SAT Changed: 7/2/2009 12:08:10 AM, Old:0.0125, New:0.1000
X Start nm Changed: 7/2/2009 12:08:15 AM, Old:  800.0, New: 1100.0
X Stop nm Changed: 7/2/2009 12:08:15 AM, Old:  200.0, New:  190.0
Y Max Abs Changed: 7/2/2009 12:08:15 AM, Old:     1.00, New:     2.00
Common Interval nm Changed: 7/2/2009 12:08:15 AM, Old:     5.00, New:     0.50
Baseline Correction Changed: 7/2/2009 12:08:15 AM, Old:0, New:1
End Method Modifications
<Current Wavelength> , 190.0

